pos_lat (deg),pos_lon (deg),pos_alt (m)
3.099999977900000303e+01,1.209999997790000066e+02,9.999987719999999802e-01
3.099999995939229436e+01,1.209999997790000066e+02,9.999987719999999802e-01
3.100000013978636204e+01,1.209999997790072257e+02,9.999985889296616470e-01
3.100000032017647911e+01,1.209999997790093857e+02,9.999990960434852472e-01
3.100000050056564405e+01,1.209999997790019393e+02,9.999992888638500332e-01
3.100000068095366501e+01,1.209999997789912243e+02,9.999986272928854669e-01
3.100000086133791299e+01,1.209999997789805661e+02,9.999983469117742496e-01
3.100000104172405813e+01,1.209999997789679469e+02,9.999978602546603090e-01
3.100000122210766662e+01,1.209999997789466164e+02,9.999975304851405067e-01
3.100000140248714331e+01,1.209999997789148125e+02,9.999975116122434837e-01
3.100000158286763963e+01,1.209999997788783332e+02,9.999976804867795055e-01
3.100000176324481060e+01,1.209999997788414134e+02,9.999977306903566898e-01
3.100000194362160144e+01,1.209999997788071369e+02,9.999983709764900253e-01
3.100000212400599864e+01,1.209999997787790988e+02,9.999993005602777485e-01
3.100000230438281790e+01,1.209999997787562478e+02,1.000000095225961338e+00
3.100000248475836528e+01,1.209999997787307962e+02,1.000000689234048501e+00
3.100000266512888558e+01,1.209999997787070640e+02,1.000001130875172395e+00
3.100000284549293994e+01,1.209999997786826782e+02,1.000000468442087120e+00
3.100000302585482359e+01,1.209999997786525370e+02,9.999997384986566429e-01
3.100000320621776240e+01,1.209999997786252806e+02,9.999990678961695467e-01
3.100000338658099963e+01,1.209999997786060248e+02,9.999984891746341864e-01
3.100000356694727799e+01,1.209999997785833301e+02,9.999984260871102038e-01
3.100000374730861452e+01,1.209999997785665613e+02,9.999984558912066168e-01
3.100000392767082502e+01,1.209999997785437813e+02,9.999992117732116048e-01
3.100000410803368567e+01,1.209999997785240424e+02,1.000001333720480723e+00
3.100000428839505417e+01,1.209999997785052415e+02,1.000003702446029763e+00
3.100000446875784732e+01,1.209999997784832289e+02,1.000005896028080654e+00
3.100000464912031006e+01,1.209999997784575783e+02,1.000008335462340137e+00
3.100000482947934444e+01,1.209999997784386920e+02,1.000011420829082232e+00
3.100000500983600560e+01,1.209999997784201753e+02,1.000014488345352115e+00
3.100000519020029444e+01,1.209999997784070445e+02,1.000017378852452454e+00
3.100000537056372707e+01,1.209999997783884993e+02,1.000020177200334093e+00
3.100000555092517374e+01,1.209999997783694425e+02,1.000023418069064363e+00
3.100000573128267334e+01,1.209999997783491068e+02,1.000026645015498872e+00
3.100000591164028307e+01,1.209999997783363170e+02,1.000030089690318480e+00
3.100000609200221646e+01,1.209999997783269663e+02,1.000034091410738624e+00
3.100000627237573525e+01,1.209999997783237404e+02,1.000037990867272297e+00
3.100000645275236266e+01,1.209999997783212251e+02,1.000041231677051723e+00
3.100000663312781413e+01,1.209999997783163366e+02,1.000044458556328841e+00
3.100000681350834952e+01,1.209999997783136081e+02,1.000047608328613613e+00
3.100000699388706948e+01,1.209999997783177292e+02,1.000050519422732043e+00
3.100000717426597063e+01,1.209999997783249057e+02,1.000053188101215351e+00
3.100000735464127644e+01,1.209999997783360328e+02,1.000055865942342637e+00
3.100000753501353401e+01,1.209999997783446304e+02,1.000059548191357006e+00
3.100000771538971023e+01,1.209999997783509968e+02,1.000063541533410261e+00
3.100000789576184346e+01,1.209999997783667425e+02,1.000066627271761099e+00
3.100000807613626819e+01,1.209999997783846766e+02,1.000068899921647825e+00
3.100000825651293468e+01,1.209999997783996122e+02,1.000071385697110848e+00
3.100000843689403496e+01,1.209999997784118477e+02,1.000073930383494236e+00
3.100000861727417600e+01,1.209999997784226622e+02,1.000075882412961858e+00
3.100000879765825346e+01,1.209999997784270391e+02,1.000077744607964725e+00
3.100000897804521216e+01,1.209999997784290855e+02,1.000080240110686081e+00
3.100000915842873539e+01,1.209999997784321550e+02,1.000082686283020106e+00
3.100000933880781417e+01,1.209999997784292276e+02,1.000084278273536631e+00
3.100000951918353209e+01,1.209999997784252912e+02,1.000086805701395631e+00
3.100000969955514307e+01,1.209999997784136809e+02,1.000090152757092232e+00
3.100000987993575308e+01,1.209999997783935584e+02,1.000093567455223154e+00
3.100001006032057660e+01,1.209999997783836676e+02,1.000097587493597118e+00
3.100001024070195044e+01,1.209999997783818770e+02,1.000101484251690875e+00
3.100001042108074145e+01,1.209999997783840371e+02,1.000104775352388620e+00
3.100001060145546816e+01,1.209999997783860834e+02,1.000108077295610798e+00
3.100001078183096226e+01,1.209999997783964574e+02,1.000110717710388064e+00
3.100001096220926300e+01,1.209999997784094319e+02,1.000113677326003314e+00
3.100001114258225954e+01,1.209999997784316434e+02,1.000117416847162044e+00
3.100001132295505357e+01,1.209999997784548782e+02,1.000121239987563415e+00
3.100001150333252298e+01,1.209999997784683217e+02,1.000125895280149058e+00
3.100001168370911842e+01,1.209999997784771182e+02,1.000130595139306244e+00
3.100001186408765008e+01,1.209999997784899648e+02,1.000135141610181355e+00
3.100001204446380143e+01,1.209999997785030246e+02,1.000139879596113612e+00
3.100001222483581031e+01,1.209999997785108832e+02,1.000143688693293731e+00
3.100001240521052281e+01,1.209999997785244261e+02,1.000147147195096231e+00
3.100001258558899053e+01,1.209999997785318016e+02,1.000150282483845965e+00
3.100001276596732325e+01,1.209999997785333505e+02,1.000153606704282661e+00
3.100001294634777693e+01,1.209999997785342174e+02,1.000156811923433198e+00
3.100001312672739573e+01,1.209999997785404560e+02,1.000160104159617092e+00
3.100001330711439707e+01,1.209999997785519810e+02,1.000162692075527771e+00
3.100001348749971086e+01,1.209999997785692472e+02,1.000165204241029615e+00
3.100001366787970269e+01,1.209999997785849075e+02,1.000168046676097156e+00
3.100001384826204287e+01,1.209999997786100892e+02,1.000171212676156607e+00
3.100001402864669231e+01,1.209999997786351997e+02,1.000175510819610425e+00
3.100001420902571425e+01,1.209999997786514143e+02,1.000180013808673163e+00
3.100001438940487475e+01,1.209999997786664068e+02,1.000184057474709620e+00
3.100001456978375458e+01,1.209999997786824082e+02,1.000188036415464055e+00
3.100001475017086605e+01,1.209999997787016213e+02,1.000191818985811221e+00
3.100001493055169277e+01,1.209999997787140273e+02,1.000195324808964337e+00
3.100001511093470086e+01,1.209999997787301425e+02,1.000198472457863197e+00
3.100001529132381606e+01,1.209999997787444102e+02,1.000201629341947562e+00
3.100001547171013883e+01,1.209999997787551820e+02,1.000204307361266087e+00
3.100001565210158816e+01,1.209999997787739829e+02,1.000206160234892616e+00
3.100001583250183046e+01,1.209999997788009694e+02,1.000207761792311523e+00
3.100001601290188091e+01,1.209999997788204098e+02,1.000208886162943456e+00
3.100001619329721692e+01,1.209999997788336401e+02,1.000209459203592388e+00
3.100001637369463481e+01,1.209999997788510768e+02,1.000209869726675471e+00
3.100001655409220191e+01,1.209999997788764432e+02,1.000210648814421566e+00
3.100001673448996442e+01,1.209999997788963668e+02,1.000211940190938176e+00
3.100001691488866484e+01,1.209999997789268775e+02,1.000213041288554594e+00
3.100001709528288174e+01,1.209999997789619073e+02,1.000214421815149413e+00
3.100001727567536136e+01,1.209999997789980171e+02,1.000216130475672260e+00
3.100001745607413284e+01,1.209999997790336721e+02,1.000218216078723188e+00
3.100001763647448882e+01,1.209999997790670250e+02,1.000220474280801186e+00
