pos_lat (deg),pos_lon (deg),pos_alt (m)
3.099999977900000303e+01,1.209997743110000101e+02,0.000000000000000000e+00
3.099999995939232278e+01,1.209997743110000101e+02,0.000000000000000000e+00
3.100000013978579005e+01,1.209997743109997970e+02,9.028804866232162022e-08
3.100000032018006380e+01,1.209997743109999817e+02,-7.170681885115459537e-07
3.100000050057525414e+01,1.209997743110041597e+02,-2.635018887975787652e-06
3.100000068097025974e+01,1.209997743110146615e+02,-3.775450297349945006e-06
3.100000086136219934e+01,1.209997743110270818e+02,-4.947073070400485191e-06
3.100000104175254378e+01,1.209997743110438506e+02,-6.108443344072259041e-06
3.100000122213788245e+01,1.209997743110647690e+02,-7.148961642025185737e-06
3.100000140252597802e+01,1.209997743110868242e+02,-7.851586760156724565e-06
3.100000158291741670e+01,1.209997743111118922e+02,-8.871351115738563715e-06
3.100000176330889090e+01,1.209997743111408965e+02,-9.857589952036498060e-06
3.100000194369383877e+01,1.209997743111745621e+02,-1.092046247399754098e-05
3.100000212407412548e+01,1.209997743111967452e+02,-1.142553823407367378e-05
3.100000230444951299e+01,1.209997743112168394e+02,-1.167172505670504125e-05
3.100000248482104226e+01,1.209997743112317750e+02,-1.213895968827306186e-05
3.100000266519676018e+01,1.209997743112499933e+02,-1.281200260857272433e-05
3.100000284557203400e+01,1.209997743112673732e+02,-1.392254435601113390e-05
3.100000302594421697e+01,1.209997743112833319e+02,-1.496658138748673935e-05
3.100000320631628270e+01,1.209997743113079594e+02,-1.591623359472451118e-05
3.100000338668547073e+01,1.209997743113358979e+02,-1.680770208311738867e-05
3.100000356705527693e+01,1.209997743113671476e+02,-1.834639506731071054e-05
3.100000374741962972e+01,1.209997743113954698e+02,-1.972919080646674039e-05
3.100000392779177361e+01,1.209997743114242184e+02,-2.180964260150029853e-05
3.100000410816522134e+01,1.209997743114530238e+02,-2.442060642967791090e-05
3.100000428854071188e+01,1.209997743114749795e+02,-2.688550488629378794e-05
3.100000446891926131e+01,1.209997743114860782e+02,-2.905234296002167860e-05
3.100000464928945121e+01,1.209997743114940647e+02,-3.077705055918852960e-05
3.100000482966304816e+01,1.209997743114976174e+02,-3.344892580597736120e-05
3.100000501002651276e+01,1.209997743115008006e+02,-3.598064822415337512e-05
3.100000519039355140e+01,1.209997743115036570e+02,-3.905395647408077162e-05
3.100000537076175533e+01,1.209997743114979016e+02,-4.297553338854387140e-05
3.100000555112926293e+01,1.209997743114970632e+02,-4.681972508525975815e-05
3.100000573150720129e+01,1.209997743114960684e+02,-5.136135956436422960e-05
3.100000591187906451e+01,1.209997743114975179e+02,-5.544505980272344418e-05
3.100000609225931569e+01,1.209997743114942637e+02,-5.953872201182281798e-05
3.100000627264505226e+01,1.209997743114982569e+02,-6.434437915070077754e-05
3.100000645303396496e+01,1.209997743115035291e+02,-6.883393297075274719e-05
3.100000663341703699e+01,1.209997743115090998e+02,-7.322046761459544909e-05
3.100000681380403122e+01,1.209997743115188200e+02,-7.705967008293402730e-05
3.100000699419319261e+01,1.209997743115316382e+02,-8.054332787451958550e-05
3.100000717458129174e+01,1.209997743115349778e+02,-8.453032396802228200e-05
3.100000735496561077e+01,1.209997743115406479e+02,-8.878668275312061439e-05
3.100000753535958609e+01,1.209997743115504676e+02,-9.347852938226809910e-05
3.100000771575259861e+01,1.209997743115613105e+02,-9.762061204125002808e-05
3.100000789614710328e+01,1.209997743115761750e+02,-1.023311515451839470e-04
3.100000807654475565e+01,1.209997743115859237e+02,-1.077678221191637751e-04
3.100000825693650341e+01,1.209997743115909259e+02,-1.129395069118477134e-04
3.100000843733092282e+01,1.209997743115975197e+02,-1.187409268969749632e-04
3.100000861772480221e+01,1.209997743116043694e+02,-1.255528127446796014e-04
3.100000879812190746e+01,1.209997743116146438e+02,-1.327988874452392277e-04
3.100000897851572645e+01,1.209997743116280589e+02,-1.401668891486644174e-04
3.100000915891254394e+01,1.209997743116423550e+02,-1.472821538450663694e-04
3.100000933930420288e+01,1.209997743116586122e+02,-1.545769139333458785e-04
3.100000951968770124e+01,1.209997743116755373e+02,-1.619272656485354193e-04
3.100000970006848533e+01,1.209997743116897055e+02,-1.695839664640171388e-04
3.100000988045694328e+01,1.209997743117174451e+02,-1.776641010183954293e-04
3.100001006085188493e+01,1.209997743117462932e+02,-1.845841696929462791e-04
3.100001024123815796e+01,1.209997743117653499e+02,-1.921652126407887939e-04
3.100001042162729803e+01,1.209997743117722422e+02,-1.999671048497434216e-04
3.100001060200957070e+01,1.209997743117778128e+02,-2.081611696791135888e-04
3.100001078238884489e+01,1.209997743117858136e+02,-2.155725781418915948e-04
3.100001096276766788e+01,1.209997743117953206e+02,-2.225879322685246143e-04
3.100001114314686745e+01,1.209997743118039466e+02,-2.290617216812998653e-04
3.100001132352785405e+01,1.209997743118046145e+02,-2.350597520874869067e-04
3.100001150391502591e+01,1.209997743118152016e+02,-2.401817581403348906e-04
3.100001168430044629e+01,1.209997743118226197e+02,-2.449615768098155431e-04
3.100001186468893977e+01,1.209997743118491940e+02,-2.508766485531143992e-04
3.100001204507624664e+01,1.209997743118706381e+02,-2.560146783422530205e-04
3.100001222545847313e+01,1.209997743118890128e+02,-2.611534415099698312e-04
3.100001240584051487e+01,1.209997743118971272e+02,-2.666888488134372404e-04
3.100001258621631095e+01,1.209997743119018310e+02,-2.723584650621785428e-04
3.100001276659106253e+01,1.209997743118992872e+02,-2.775293008448093427e-04
3.100001294696030030e+01,1.209997743118906186e+02,-2.828709997873825560e-04
3.100001312733008518e+01,1.209997743118798752e+02,-2.873125444671400098e-04
3.100001330769649499e+01,1.209997743118727982e+02,-2.921491081873206584e-04
3.100001348806875612e+01,1.209997743118733808e+02,-2.971659428808832927e-04
3.100001366844545458e+01,1.209997743118712492e+02,-3.020935084750635637e-04
3.100001384881936417e+01,1.209997743118702829e+02,-3.069216743972174710e-04
3.100001402919482985e+01,1.209997743118633053e+02,-3.114814713349691095e-04
3.100001420957188358e+01,1.209997743118530877e+02,-3.162110000717269112e-04
3.100001438994616620e+01,1.209997743118472613e+02,-3.204435074504611083e-04
3.100001457031947893e+01,1.209997743118379390e+02,-3.249594703455728636e-04
3.100001475069803192e+01,1.209997743118315867e+02,-3.296247709600286604e-04
3.100001493108014117e+01,1.209997743118283466e+02,-3.340041535448509832e-04
3.100001511145990563e+01,1.209997743118166511e+02,-3.383494460106426394e-04
3.100001529185028204e+01,1.209997743118065472e+02,-3.426044585273366389e-04
3.100001547224202980e+01,1.209997743117919100e+02,-3.473190692594627614e-04
3.100001565263114500e+01,1.209997743117663873e+02,-3.522173837722189114e-04
3.100001583302647745e+01,1.209997743117348392e+02,-3.568289814860132374e-04
3.100001601342287572e+01,1.209997743117066022e+02,-3.611733328386378962e-04
3.100001619381739104e+01,1.209997743116707198e+02,-3.651220370186083444e-04
3.100001637421609857e+01,1.209997743116336437e+02,-3.690791689074635583e-04
3.100001655461495886e+01,1.209997743115972071e+02,-3.731998577840308197e-04
3.100001673500591792e+01,1.209997743115634705e+02,-3.774419883881650483e-04
3.100001691539841886e+01,1.209997743115385447e+02,-3.814268817913761675e-04
3.100001709579342446e+01,1.209997743115170579e+02,-3.873617125730074019e-04
3.100001727619386926e+01,1.209997743114906257e+02,-3.921154966294783275e-04
3.100001745659620411e+01,1.209997743114583670e+02,-3.967203290876906204e-04
3.100001763700228352e+01,1.209997743114232946e+02,-4.014850907446361255e-04
