pos_lat (deg),pos_lon (deg),pos_alt (m)
3.019999999999999929e+01,1.199999999999999858e+02,0.000000000000000000e+00
3.020000018041451995e+01,1.199999999999999858e+02,0.000000000000000000e+00
3.020000036083371597e+01,1.199999999999952536e+02,-6.358332448196227609e-07
3.020000054125208777e+01,1.199999999999890008e+02,-4.256513697774245137e-07
3.020000072166305927e+01,1.199999999999821796e+02,5.166363569604093817e-08
3.020000090206847787e+01,1.199999999999803748e+02,1.905670667606798073e-07
3.020000108247898396e+01,1.199999999999734968e+02,1.824303745600611293e-07
3.020000126288534759e+01,1.199999999999658513e+02,1.025312394455462761e-06
3.020000144328718861e+01,1.199999999999664482e+02,1.772849038874553048e-06
3.020000162369674257e+01,1.199999999999589306e+02,2.372704039311705687e-06
3.020000180409778423e+01,1.199999999999518963e+02,2.961066564766007213e-06
3.020000198450138384e+01,1.199999999999405276e+02,3.356374342153964813e-06
3.020000216490208444e+01,1.199999999999297842e+02,3.614342822099506860e-06
3.020000234530403205e+01,1.199999999999260041e+02,2.715564757390879708e-06
3.020000252570449462e+01,1.199999999999195808e+02,9.862307437237102502e-07
3.020000270609991944e+01,1.199999999999122053e+02,-1.598536386336266242e-06
3.020000288649714548e+01,1.199999999999049010e+02,-4.046036574005912076e-06
3.020000306689485470e+01,1.199999999998920117e+02,-6.669906538006876296e-06
3.020000324729528529e+01,1.199999999998825189e+02,-9.022282252020905188e-06
3.020000342769480284e+01,1.199999999998776588e+02,-1.181858468099536719e-05
3.020000360809404327e+01,1.199999999998672422e+02,-1.527226196918694937e-05
3.020000378849511335e+01,1.199999999998554472e+02,-1.839701506881634942e-05
3.020000396889124872e+01,1.199999999998356230e+02,-2.170168522067045819e-05
3.020000414928977506e+01,1.199999999998110667e+02,-2.566808560229333938e-05
3.020000432968447512e+01,1.199999999997821902e+02,-2.942209725757328589e-05
3.020000451008907305e+01,1.199999999997516085e+02,-3.249268904359950107e-05
3.020000469049437797e+01,1.199999999997211262e+02,-3.548768937793153784e-05
3.020000487089593477e+01,1.199999999996919655e+02,-3.871189466442318233e-05
3.020000505130059665e+01,1.199999999996588258e+02,-4.215554126328495725e-05
3.020000523170478246e+01,1.199999999996300346e+02,-4.579661975719257378e-05
3.020000541211287981e+01,1.199999999995965396e+02,-4.944645593520027323e-05
3.020000559252035899e+01,1.199999999995677200e+02,-5.298053101617951870e-05
3.020000577293108179e+01,1.199999999995421973e+02,-5.664786386141245874e-05
3.020000595334458637e+01,1.199999999995263664e+02,-6.011362721015124633e-05
3.020000613375675513e+01,1.199999999995204121e+02,-6.435746665741607243e-05
3.020000631416662529e+01,1.199999999995137756e+02,-6.879846915894358844e-05
3.020000649458467734e+01,1.199999999995019095e+02,-7.375972189864609557e-05
3.020000667500963942e+01,1.199999999994815312e+02,-7.911916518303627513e-05
3.020000685543701380e+01,1.199999999994671640e+02,-8.471825689808532174e-05
3.020000703587288982e+01,1.199999999994459188e+02,-9.027374738174028478e-05
3.020000721631009810e+01,1.199999999994313811e+02,-9.552614752290339143e-05
3.020000739675033685e+01,1.199999999994222009e+02,-1.009922687851989165e-04
3.020000757718717210e+01,1.199999999994156354e+02,-1.059203120260359115e-04
3.020000775762706269e+01,1.199999999994069526e+02,-1.105592537605402194e-04
3.020000793806543271e+01,1.199999999993874980e+02,-1.155279162434966081e-04
3.020000811851075895e+01,1.199999999993670343e+02,-1.200104393543079649e-04
3.020000829896304140e+01,1.199999999993504645e+02,-1.245625217779200964e-04
3.020000847941481226e+01,1.199999999993247428e+02,-1.292257219152312452e-04
3.020000865986509098e+01,1.199999999993010107e+02,-1.335087744699865785e-04
3.020000884032278066e+01,1.199999999992760138e+02,-1.372504420465887616e-04
3.020000902077812199e+01,1.199999999992549817e+02,-1.413867956806084958e-04
3.020000920123235488e+01,1.199999999992292317e+02,-1.455931292853102814e-04
3.020000938169340188e+01,1.199999999992086686e+02,-1.499487294998325929e-04
3.020000956215752552e+01,1.199999999991871391e+02,-1.552039988804409512e-04
3.020000974262871907e+01,1.199999999991683950e+02,-1.610912236012642740e-04
3.020000992309944721e+01,1.199999999991447766e+02,-1.662872563631781790e-04
3.020001010358268800e+01,1.199999999991231192e+02,-1.711557638346274492e-04
3.020001028406657184e+01,1.199999999991039346e+02,-1.760748877179699288e-04
3.020001046455069016e+01,1.199999999990841957e+02,-1.806924580729350359e-04
3.020001064503400201e+01,1.199999999990630215e+02,-1.849719979933131270e-04
3.020001082551822691e+01,1.199999999990360067e+02,-1.890917490255996378e-04
3.020001100599922239e+01,1.199999999990072297e+02,-1.931209412707141711e-04
3.020001118648226779e+01,1.199999999989783674e+02,-1.977238585141513887e-04
3.020001136696150468e+01,1.199999999989438635e+02,-2.024459485626871824e-04
3.020001154744326399e+01,1.199999999989048689e+02,-2.075592235689189755e-04
3.020001172792433763e+01,1.199999999988713313e+02,-2.124688578072001085e-04
3.020001190841609429e+01,1.199999999988490060e+02,-2.174145007147440024e-04
3.020001208890982980e+01,1.199999999988278745e+02,-2.220190256391977180e-04
3.020001226940745909e+01,1.199999999988088604e+02,-2.266992909830161307e-04
3.020001244990119815e+01,1.199999999987826840e+02,-2.313509294401453571e-04
3.020001263039065265e+01,1.199999999987621635e+02,-2.353080764972068886e-04
3.020001281088203626e+01,1.199999999987387582e+02,-2.393199469676799611e-04
3.020001299137248907e+01,1.199999999987086028e+02,-2.434146854155752463e-04
3.020001317185857204e+01,1.199999999986798116e+02,-2.477172927696775877e-04
3.020001335234509199e+01,1.199999999986586943e+02,-2.523016351972498018e-04
3.020001353283103285e+01,1.199999999986402628e+02,-2.571914772615954627e-04
3.020001371330960538e+01,1.199999999986182360e+02,-2.627218260499812868e-04
3.020001389378087353e+01,1.199999999985935233e+02,-2.681689494676495742e-04
3.020001407425440831e+01,1.199999999985658405e+02,-2.728579073098179276e-04
3.020001425472839429e+01,1.199999999985390673e+02,-2.778635215285318871e-04
3.020001443519900874e+01,1.199999999985136867e+02,-2.821372131937155154e-04
3.020001461567080980e+01,1.199999999985004706e+02,-2.865187985157879261e-04
3.020001479613850393e+01,1.199999999984825365e+02,-2.908099797779719166e-04
3.020001497660658174e+01,1.199999999984582075e+02,-2.949727835150901096e-04
3.020001515707696527e+01,1.199999999984302264e+02,-2.994672396087010827e-04
3.020001533755141665e+01,1.199999999984036521e+02,-3.035842232822473182e-04
3.020001551802352324e+01,1.199999999983767651e+02,-3.078707234574356872e-04
3.020001569849665657e+01,1.199999999983471497e+02,-3.122321487881191018e-04
3.020001587897152717e+01,1.199999999983123615e+02,-3.164120779272681732e-04
3.020001605944373679e+01,1.199999999982671000e+02,-3.207354703622159711e-04
3.020001623991576878e+01,1.199999999982163388e+02,-3.253517541407349766e-04
3.020001642038731404e+01,1.199999999981705656e+02,-3.298382023877847492e-04
3.020001660086149542e+01,1.199999999981180707e+02,-3.339895832822374817e-04
3.020001678132901191e+01,1.199999999980750687e+02,-3.374961485734275500e-04
3.020001696178980310e+01,1.199999999980282013e+02,-3.406862029010969493e-04
3.020001714225347911e+01,1.199999999979833376e+02,-3.437010098918288057e-04
3.020001732271751393e+01,1.199999999979437462e+02,-3.464012161419819497e-04
3.020001750318844458e+01,1.199999999979113880e+02,-3.491256547864984481e-04
3.020001768364970118e+01,1.199999999978817442e+02,-3.514387458076773671e-04
3.020001786410966815e+01,1.199999999978499403e+02,-3.537038915530687014e-04
3.020001804457096384e+01,1.199999999978131626e+02,-3.557447717034604800e-04
3.020001822502944577e+01,1.199999999977815719e+02,-3.582329769572365668e-04
3.020001840548932392e+01,1.199999999977416252e+02,-3.599755497430977324e-04
3.020001858594761401e+01,1.199999999977037817e+02,-3.613544800492765174e-04
3.020001876640835548e+01,1.199999999976622007e+02,-3.617982691392465145e-04
3.020001894686869193e+01,1.199999999976149780e+02,-3.619113485062663512e-04
3.020001912733251714e+01,1.199999999975575520e+02,-3.623737064146619904e-04
3.020001930778933286e+01,1.199999999975105283e+02,-3.636264461651670180e-04
3.020001948824180715e+01,1.199999999974597245e+02,-3.649977147138508621e-04
3.020001966869451948e+01,1.199999999974103559e+02,-3.668301849557164423e-04
3.020001984914795301e+01,1.199999999973624227e+02,-3.685928151632907610e-04
3.020002002960163878e+01,1.199999999973118605e+02,-3.704589115525147819e-04
3.020002021005561943e+01,1.199999999972558555e+02,-3.726365112932588449e-04
3.020002039051307108e+01,1.199999999971905993e+02,-3.749458029160733724e-04
3.020002057096831649e+01,1.199999999971259967e+02,-3.778133363112833021e-04
3.020002075142806675e+01,1.199999999970609537e+02,-3.804570272418260433e-04
3.020002093188654158e+01,1.199999999970004296e+02,-3.828689113623646111e-04
3.020002111233964470e+01,1.199999999969412841e+02,-3.852630164059036005e-04
3.020002129279590264e+01,1.199999999968787705e+02,-3.877168710493586988e-04
3.020002147325004671e+01,1.199999999968153332e+02,-3.902792222838847073e-04
3.020002165370071268e+01,1.199999999967454443e+02,-3.935589963858908565e-04
3.020002183414089458e+01,1.199999999966765643e+02,-3.973652072967214562e-04
3.020002201457977264e+01,1.199999999966084516e+02,-4.012603007739178875e-04
3.020002219502659813e+01,1.199999999965362605e+02,-4.050582420815735610e-04
3.020002237547812030e+01,1.199999999964634156e+02,-4.087894354516603585e-04
3.020002255593158580e+01,1.199999999963951183e+02,-4.125141595092084688e-04
3.020002273639024537e+01,1.199999999963249451e+02,-4.167576064612933152e-04
3.020002291685256068e+01,1.199999999962603425e+02,-4.208701336290231578e-04
3.020002309731950874e+01,1.199999999961906525e+02,-4.248219006353843902e-04
3.020002327777797291e+01,1.199999999961230941e+02,-4.295225328449877493e-04
3.020002345823393597e+01,1.199999999960587473e+02,-4.332006777765999399e-04
3.020002363869361162e+01,1.199999999959948127e+02,-4.371288493644873326e-04
3.020002381915297107e+01,1.199999999959255206e+02,-4.407499120240837955e-04
3.020002399960917572e+01,1.199999999958574648e+02,-4.452036166065800578e-04
3.020002418005896416e+01,1.199999999957865384e+02,-4.497249155399217404e-04
3.020002436051342087e+01,1.199999999957203158e+02,-4.542624810531303630e-04
3.020002454096963262e+01,1.199999999956527859e+02,-4.585311183830364785e-04
3.020002472143177386e+01,1.199999999955799552e+02,-4.640029710123505296e-04
3.020002490189590105e+01,1.199999999955082330e+02,-4.693567101386891555e-04
3.020002508236290240e+01,1.199999999954399215e+02,-4.744331212373383271e-04
3.020002526282741329e+01,1.199999999953596586e+02,-4.790514099915077896e-04
3.020002544328825778e+01,1.199999999952750898e+02,-4.837497516833339645e-04
3.020002562375250577e+01,1.199999999951913026e+02,-4.878368526008309831e-04
3.020002580422340444e+01,1.199999999951079701e+02,-4.914366237398953884e-04
3.020002598469252320e+01,1.199999999950226481e+02,-4.954377881769808688e-04
3.020002616516552862e+01,1.199999999949339582e+02,-4.994946943216265183e-04
3.020002634563475041e+01,1.199999999948466467e+02,-5.028878988307446812e-04
3.020002652610619265e+01,1.199999999947696381e+02,-5.055892138337305351e-04
3.020002670657968480e+01,1.199999999946939084e+02,-5.077111962166332105e-04
3.020002688704989424e+01,1.199999999946223284e+02,-5.099862741624778010e-04
3.020002706751878918e+01,1.199999999945563047e+02,-5.112507552222322850e-04
3.020002724798582250e+01,1.199999999944861031e+02,-5.121196647877842905e-04
3.020002742845397492e+01,1.199999999944179905e+02,-5.136020359822019658e-04
3.020002760892325355e+01,1.199999999943453446e+02,-5.147074474111623622e-04
3.020002778939058530e+01,1.199999999942744893e+02,-5.152258079953555333e-04
3.020002796985871640e+01,1.199999999942050692e+02,-5.155737866953724385e-04
3.020002815032904309e+01,1.199999999941332476e+02,-5.160151791711803729e-04
3.020002833080710047e+01,1.199999999940518904e+02,-5.163453589789970041e-04
3.020002851128520049e+01,1.199999999939708744e+02,-5.170504045061983037e-04
3.020002869175402083e+01,1.199999999938886646e+02,-5.170221942914260578e-04
3.020002887222623755e+01,1.199999999938059716e+02,-5.167275516460726002e-04
3.020002905270277438e+01,1.199999999937255666e+02,-5.162765912666961686e-04
3.020002923318130783e+01,1.199999999936496238e+02,-5.162561668805471264e-04
3.020002941366216476e+01,1.199999999935733115e+02,-5.162491433127339505e-04
3.020002959413755406e+01,1.199999999934903343e+02,-5.164973103568374366e-04
3.020002977460583438e+01,1.199999999934137946e+02,-5.166516375778023185e-04
3.020002995507366705e+01,1.199999999933387897e+02,-5.160809207818066284e-04
3.020003013553808202e+01,1.199999999932608574e+02,-5.149624806757009503e-04
3.020003031600660037e+01,1.199999999931809072e+02,-5.155494035595591627e-04
3.020003049648036964e+01,1.199999999930963099e+02,-5.156811375887724452e-04
3.020003067695020960e+01,1.199999999930137591e+02,-5.155686324237910645e-04
3.020003085742689208e+01,1.199999999929324872e+02,-5.148038009371867828e-04
3.020003103790743282e+01,1.199999999928469521e+02,-5.131572402044259906e-04
3.020003121838587745e+01,1.199999999927699292e+02,-5.104703105070743270e-04
3.020003139886551935e+01,1.199999999926987613e+02,-5.080283035422268308e-04
3.020003157934690208e+01,1.199999999926450158e+02,-5.054394359556138366e-04
3.020003175982240862e+01,1.199999999925888403e+02,-5.027180073304839646e-04
3.020003194029871452e+01,1.199999999925334038e+02,-5.000189044548474654e-04
3.020003212077443067e+01,1.199999999924863232e+02,-4.969069162139384604e-04
3.020003230124796545e+01,1.199999999924418717e+02,-4.938434615600012598e-04
3.020003248171712684e+01,1.199999999923950043e+02,-4.904995193831076291e-04
3.020003266218398963e+01,1.199999999923417704e+02,-4.871002857294010990e-04
3.020003284264569032e+01,1.199999999922892044e+02,-4.842624550801735836e-04
3.020003302310912119e+01,1.199999999922312384e+02,-4.812862698725540317e-04
3.020003320357833232e+01,1.199999999921695348e+02,-4.792380589894917799e-04
3.020003338405121696e+01,1.199999999921033123e+02,-4.772357827699060299e-04
3.020003356452532728e+01,1.199999999920296290e+02,-4.750417133698514659e-04
3.020003374499997406e+01,1.199999999919534162e+02,-4.726229278521452298e-04
3.020003392547250343e+01,1.199999999918836977e+02,-4.694932380414915465e-04
3.020003410594696547e+01,1.199999999918110234e+02,-4.666697032414261520e-04
3.020003428642293741e+01,1.199999999917401112e+02,-4.646793935847687404e-04
3.020003446690247983e+01,1.199999999916709044e+02,-4.626758660462515970e-04
3.020003464738399046e+01,1.199999999915928726e+02,-4.601561363496301849e-04
3.020003482786800220e+01,1.199999999915161339e+02,-4.582201428103139357e-04
3.020003500835504795e+01,1.199999999914417259e+02,-4.567541905294299860e-04
3.020003518884187343e+01,1.199999999913749917e+02,-4.555385452169868617e-04
3.020003536932727073e+01,1.199999999913099060e+02,-4.546057855691166085e-04
3.020003554980851490e+01,1.199999999912386386e+02,-4.538012440457342379e-04
3.020003573028955657e+01,1.199999999911647706e+02,-4.541537113792782927e-04
3.020003591076126170e+01,1.199999999910851187e+02,-4.546832057907713022e-04
3.020003609124552213e+01,1.199999999910015163e+02,-4.555003820120403406e-04
3.020003627173186089e+01,1.199999999909242376e+02,-4.567625115318274098e-04
3.020003645221211741e+01,1.199999999908411894e+02,-4.583076653179577104e-04
3.020003663270703242e+01,1.199999999907607133e+02,-4.598771891726071326e-04
3.020003681319845157e+01,1.199999999906852111e+02,-4.609644513865104854e-04
3.020003699368882977e+01,1.199999999906047918e+02,-4.622256052617622867e-04
3.020003717417803202e+01,1.199999999905308954e+02,-4.637889495616486835e-04
3.020003735466533001e+01,1.199999999904540573e+02,-4.653832253060050128e-04
3.020003753515102574e+01,1.199999999903829604e+02,-4.663747025658413099e-04
3.020003771562902628e+01,1.199999999903186847e+02,-4.656133350109836646e-04
3.020003789611098810e+01,1.199999999902515100e+02,-4.651140543730743811e-04
3.020003807659497852e+01,1.199999999901856427e+02,-4.651033865808432599e-04
3.020003825707897605e+01,1.199999999901252323e+02,-4.650744241741832990e-04
3.020003843756284567e+01,1.199999999900615251e+02,-4.647048370237079687e-04
3.020003861804288903e+01,1.199999999899929009e+02,-4.640908342507035766e-04
3.020003879851687856e+01,1.199999999899305010e+02,-4.631362391439348036e-04
3.020003897899229628e+01,1.199999999898705596e+02,-4.619319744364393677e-04
3.020003915947019379e+01,1.199999999898170273e+02,-4.613244937851233483e-04
3.020003933994940581e+01,1.199999999897564606e+02,-4.602038543667655518e-04
3.020003952043830253e+01,1.199999999897007683e+02,-4.595108493444891593e-04
3.020003970093206647e+01,1.199999999896531193e+02,-4.588234102610040102e-04
3.020003988142704188e+01,1.199999999896032676e+02,-4.579865993326813186e-04
3.020004006191906853e+01,1.199999999895606919e+02,-4.572955040882927869e-04
3.020004024240894935e+01,1.199999999895182867e+02,-4.562363330027588318e-04
3.020004042289908597e+01,1.199999999894787663e+02,-4.542093539431431466e-04
3.020004060338739649e+01,1.199999999894362475e+02,-4.517455901777501820e-04
3.020004078387131585e+01,1.199999999893976224e+02,-4.489913697311221133e-04
3.020004096435950203e+01,1.199999999893593241e+02,-4.459439159036607172e-04
3.020004114484898139e+01,1.199999999893210401e+02,-4.428668779785250990e-04
3.020004132534024421e+01,1.199999999892784359e+02,-4.395155435488002846e-04
3.020004150582424174e+01,1.199999999892387450e+02,-4.355027102582247306e-04
3.020004168631168184e+01,1.199999999892031042e+02,-4.316339304953945542e-04
3.020004186678637836e+01,1.199999999891743272e+02,-4.276420202659948246e-04
3.020004204726022223e+01,1.199999999891403064e+02,-4.236298731619854972e-04
3.020004222773724933e+01,1.199999999891029034e+02,-4.193385248401438410e-04
3.020004240821155861e+01,1.199999999890622462e+02,-4.145857993607733496e-04
3.020004258868581104e+01,1.199999999890153788e+02,-4.091926753580427730e-04
3.020004276915913621e+01,1.199999999889609938e+02,-4.037936943897980501e-04
3.020004294963605318e+01,1.199999999889127622e+02,-3.976798701794689666e-04
3.020004313010746344e+01,1.199999999888620437e+02,-3.919887005166803771e-04
3.020004331057175762e+01,1.199999999888217417e+02,-3.863222040584402624e-04
3.020004349103512808e+01,1.199999999887763238e+02,-3.808133108651440930e-04
3.020004367149578073e+01,1.199999999887267279e+02,-3.750586397643784634e-04
3.020004385196387986e+01,1.199999999886790931e+02,-3.692502862517562431e-04
3.020004403243433799e+01,1.199999999886360911e+02,-3.634335567762090420e-04
3.020004421290783725e+01,1.199999999885893516e+02,-3.574005487300185770e-04
3.020004439337614954e+01,1.199999999885355635e+02,-3.521050851497598737e-04
3.020004457384617069e+01,1.199999999884824859e+02,-3.469977990989362034e-04
3.020004475431957758e+01,1.199999999884281721e+02,-3.418364566730344961e-04
3.020004493478617746e+01,1.199999999883761603e+02,-3.362195153003918351e-04
3.020004511524525270e+01,1.199999999883289092e+02,-3.300152411721055785e-04
3.020004529570823237e+01,1.199999999882846566e+02,-3.239357418205038091e-04
3.020004547617384105e+01,1.199999999882503090e+02,-3.174544552095906165e-04
3.020004565663209561e+01,1.199999999882116555e+02,-3.120396592276371717e-04
3.020004583708805512e+01,1.199999999881732435e+02,-3.067095664554197413e-04
3.020004601753812068e+01,1.199999999881376880e+02,-3.021742309659049275e-04
3.020004619799451717e+01,1.199999999880946149e+02,-2.973405395538866996e-04
3.020004637845628181e+01,1.199999999880493959e+02,-2.926740504430182352e-04
3.020004655891947465e+01,1.199999999880066497e+02,-2.881689303181037996e-04
3.020004673937876660e+01,1.199999999879578212e+02,-2.833863868496527892e-04
3.020004691984133061e+01,1.199999999879131138e+02,-2.778430855553782144e-04
3.020004710030482187e+01,1.199999999878588284e+02,-2.717567192427077145e-04
