pos_lat (deg),pos_lon (deg),pos_alt (m)
3.099999863500000430e+01,1.199999999999999858e+02,0.000000000000000000e+00
3.099999881539232405e+01,1.199999999999999858e+02,0.000000000000000000e+00
3.099999899578532236e+01,1.200000000000028706e+02,4.386321817009067817e-08
3.099999917617093814e+01,1.200000000000011653e+02,5.170593591972262781e-07
3.099999935655284489e+01,1.199999999999967883e+02,3.801023572083480780e-07
3.099999953694037202e+01,1.199999999999959925e+02,2.602837606571439691e-07
3.099999971733279480e+01,1.199999999999886171e+02,9.604303026955613955e-07
3.099999989772864595e+01,1.199999999999796643e+02,1.596434576064098092e-06
3.100000007811539504e+01,1.199999999999694325e+02,3.097518725559248044e-06
3.100000025850642515e+01,1.199999999999553637e+02,4.038193403326486772e-06
3.100000043889445323e+01,1.199999999999455866e+02,4.913276629013874255e-06
3.100000061928460582e+01,1.199999999999320295e+02,6.336923003909765011e-06
3.100000079966863709e+01,1.199999999999121627e+02,8.472757161196428145e-06
3.100000098004776561e+01,1.199999999998924096e+02,9.805069166019959171e-06
3.100000116043297638e+01,1.199999999998746318e+02,1.139842469893764558e-05
3.100000134082699432e+01,1.199999999998537845e+02,1.227571372015352965e-05
3.100000152122258612e+01,1.199999999998395595e+02,1.334679456934999141e-05
3.100000170161708368e+01,1.199999999998289013e+02,1.530752053398317340e-05
3.100000188201650531e+01,1.199999999998105835e+02,1.699459786225433262e-05
3.100000206242087231e+01,1.199999999997884430e+02,1.909524657157201765e-05
3.100000224282220884e+01,1.199999999997648814e+02,2.101571679516563672e-05
3.100000242322350630e+01,1.199999999997447304e+02,2.397733851851725521e-05
3.100000260362078919e+01,1.199999999997218509e+02,2.743415297931779031e-05
3.100000278400993636e+01,1.199999999997060343e+02,3.024741528346310503e-05
3.100000296439129599e+01,1.199999999996949640e+02,3.268787246636576228e-05
3.100000314476761432e+01,1.199999999996776552e+02,3.473684140474909803e-05
3.100000332514192536e+01,1.199999999996597921e+02,3.717154464370037262e-05
3.100000350551233552e+01,1.199999999996407922e+02,3.953245924706110898e-05
3.100000368588663591e+01,1.199999999996207407e+02,4.188558066679013271e-05
3.100000386625336546e+01,1.199999999996014282e+02,4.439818032525148669e-05
3.100000404661927433e+01,1.199999999995805666e+02,4.714146898615376017e-05
3.100000422698750668e+01,1.199999999995656736e+02,4.982432400846414510e-05
3.100000440736097929e+01,1.199999999995519886e+02,5.325322231106574208e-05
3.100000458773327594e+01,1.199999999995368256e+02,5.707539233249281271e-05
3.100000476810690841e+01,1.199999999995143583e+02,6.062074658341425732e-05
3.100000494848519139e+01,1.199999999995003321e+02,6.374885634453521352e-05
3.100000512887132231e+01,1.199999999994859650e+02,6.682099537864384859e-05
3.100000530925597531e+01,1.199999999994700346e+02,7.070900412605318102e-05
3.100000548964876401e+01,1.199999999994677466e+02,7.443426204236266140e-05
3.100000567003509389e+01,1.199999999994651176e+02,7.786689955478751416e-05
3.100000585042386092e+01,1.199999999994623749e+02,8.129063562281905672e-05
3.100000603081587514e+01,1.199999999994568753e+02,8.445367635642011585e-05
3.100000621121223077e+01,1.199999999994460183e+02,8.790344072456010658e-05
3.100000639161261162e+01,1.199999999994319495e+02,9.162413214941362021e-05
3.100000657201946197e+01,1.199999999994167297e+02,9.555963349738720895e-05
3.100000675243208192e+01,1.199999999994080326e+02,1.001800875177824969e-04
3.100000693284766484e+01,1.199999999993972608e+02,1.049381253058695527e-04
3.100000711326377711e+01,1.199999999993830357e+02,1.097447531884567244e-04
3.100000729367619456e+01,1.199999999993743671e+02,1.137108500887198834e-04
3.100000747409094259e+01,1.199999999993670059e+02,1.186154903876567533e-04
3.100000765450976559e+01,1.199999999993502229e+02,1.225042882076405649e-04
3.100000783492720657e+01,1.199999999993345483e+02,1.256930984030640082e-04
3.100000801534366346e+01,1.199999999993229380e+02,1.282826404245336247e-04
3.100000819576404254e+01,1.199999999993220001e+02,1.308449106091462161e-04
3.100000837618952332e+01,1.199999999993202238e+02,1.333228404809827256e-04
3.100000855662110055e+01,1.199999999993160174e+02,1.359574492229502333e-04
3.100000873705248594e+01,1.199999999993127346e+02,1.381912656052382889e-04
3.100000891747703236e+01,1.199999999993089403e+02,1.406862525893624318e-04
3.100000909789778092e+01,1.199999999993067519e+02,1.437363683558065715e-04
3.100000927831944608e+01,1.199999999993033697e+02,1.467553255464544451e-04
3.100000945873320646e+01,1.199999999992985664e+02,1.490495474874359771e-04
3.100000963914376939e+01,1.199999999992909494e+02,1.520399031520439277e-04
3.100000981955345836e+01,1.199999999992862030e+02,1.553675141336682884e-04
3.100000999995953777e+01,1.199999999992855635e+02,1.590874333308825190e-04
3.100001018036313738e+01,1.199999999992908073e+02,1.625816947093978852e-04
3.100001036076577776e+01,1.199999999992927400e+02,1.665161900714639284e-04
3.100001054116434318e+01,1.199999999992961222e+02,1.709321950668240989e-04
3.100001072156858584e+01,1.199999999993099635e+02,1.751182716108780075e-04
3.100001090197760689e+01,1.199999999993247997e+02,1.795870951886209695e-04
3.100001108238976855e+01,1.199999999993490718e+02,1.849961751171607510e-04
3.100001126280523778e+01,1.199999999993749924e+02,1.907818365422915216e-04
3.100001144322830626e+01,1.199999999994067821e+02,1.972028649761847264e-04
3.100001162365305163e+01,1.199999999994325037e+02,2.031775857559723958e-04
3.100001180407831214e+01,1.199999999994561932e+02,2.104817603027777327e-04
3.100001198449412243e+01,1.199999999994774669e+02,2.182547516110215776e-04
3.100001216491172329e+01,1.199999999995036717e+02,2.258162927566049495e-04
3.100001234533064220e+01,1.199999999995379767e+02,2.340346611675132784e-04
3.100001252574677224e+01,1.199999999995659863e+02,2.428971507493120428e-04
3.100001270615738136e+01,1.199999999995996802e+02,2.517564280345409235e-04
3.100001288656710585e+01,1.199999999996273061e+02,2.605797319293922981e-04
3.100001306698015213e+01,1.199999999996560263e+02,2.705189120707835100e-04
3.100001324739168496e+01,1.199999999996818616e+02,2.803276616147418079e-04
3.100001342779702895e+01,1.199999999997186535e+02,2.897077724418760836e-04
3.100001360820591501e+01,1.199999999997559854e+02,2.980038916210681825e-04
3.100001378862198820e+01,1.199999999997928199e+02,3.057424431461587262e-04
3.100001396903020634e+01,1.199999999998318998e+02,3.141699039045825785e-04
3.100001414943994149e+01,1.199999999998776588e+02,3.233963762461733145e-04
3.100001432984383598e+01,1.199999999999247819e+02,3.330204790271287883e-04
3.100001451024584398e+01,1.199999999999775184e+02,3.422586259118728567e-04
3.100001469064446269e+01,1.200000000000356124e+02,3.509317874905563983e-04
3.100001487104717768e+01,1.200000000000963212e+02,3.601723975051282804e-04
3.100001505145631242e+01,1.200000000001605684e+02,3.686375327421461344e-04
3.100001523186928765e+01,1.200000000002237499e+02,3.770153821661625612e-04
3.100001541227005220e+01,1.200000000002915783e+02,3.861299344839882130e-04
3.100001559268273255e+01,1.200000000003572751e+02,3.951889579917750310e-04
3.100001577309139833e+01,1.200000000004153975e+02,4.052849030969285157e-04
3.100001595349160510e+01,1.200000000004633591e+02,4.160570645958015313e-04
3.100001613389505195e+01,1.200000000005147598e+02,4.276734558857703196e-04
3.100001631430512106e+01,1.200000000005735359e+02,4.396664660084483706e-04
3.100001649471658283e+01,1.200000000006385648e+02,4.508948370074403232e-04
