pos_lat (deg),pos_lon (deg),pos_alt (m)
2.999999999999999645e+01,1.199999999999999858e+02,0.000000000000000000e+00
3.000000009021000480e+01,1.199999999999999858e+02,0.000000000000000000e+00
3.000000018041735572e+01,1.199999999999992326e+02,-5.869528778619002735e-08
3.000000027062555219e+01,1.199999999999976552e+02,6.572746059084670136e-07
3.000000036082995791e+01,1.199999999999963052e+02,1.028157097584454501e-06
3.000000045103888269e+01,1.199999999999914877e+02,2.413969038818040929e-07
3.000000054124805260e+01,1.199999999999810143e+02,-5.867687795053451210e-07
3.000000063146000429e+01,1.199999999999647997e+02,-1.976026431756880336e-06
3.000000072167060239e+01,1.199999999999485425e+02,-3.707467940541562198e-06
3.000000081187780765e+01,1.199999999999358948e+02,-5.212152832487776461e-06
3.000000090207945647e+01,1.199999999999268852e+02,-7.218947350438050350e-06
3.000000099228603645e+01,1.199999999999178755e+02,-9.153523363416925552e-06
3.000000108249214748e+01,1.199999999998976250e+02,-1.091247613750918058e-05
3.000000117269929234e+01,1.199999999998749587e+02,-1.296891583440424318e-05
3.000000126290391478e+01,1.199999999998536140e+02,-1.477216606345494904e-05
3.000000135310236971e+01,1.199999999998326956e+02,-1.665551091250131710e-05
3.000000144329921881e+01,1.199999999998121041e+02,-1.787578735624671645e-05
3.000000153349373022e+01,1.199999999997953353e+02,-1.916079685713707484e-05
3.000000162368652212e+01,1.199999999997853877e+02,-2.064128415727458529e-05
3.000000171387804926e+01,1.199999999997740758e+02,-2.249063512695697106e-05
3.000000180407426242e+01,1.199999999997616840e+02,-2.402394037510131880e-05
3.000000189426626918e+01,1.199999999997539248e+02,-2.580326061222589838e-05
3.000000198445803434e+01,1.199999999997459099e+02,-2.812681108231632866e-05
3.000000207465007307e+01,1.199999999997408366e+02,-3.055269976306930913e-05
3.000000216485038251e+01,1.199999999997289564e+02,-3.287594683944627705e-05
3.000000225504814466e+01,1.199999999997279190e+02,-3.521400106896020623e-05
3.000000234524787501e+01,1.199999999997268958e+02,-3.758847663842333048e-05
3.000000243545052925e+01,1.199999999997281179e+02,-3.959235504744247885e-05
3.000000252565492076e+01,1.199999999997257731e+02,-4.209211810303030161e-05
3.000000261585737249e+01,1.199999999997264837e+02,-4.400341789943539207e-05
3.000000270606315667e+01,1.199999999997256168e+02,-4.560954027718903871e-05
3.000000279627028021e+01,1.199999999997308890e+02,-4.746769520921540923e-05
3.000000288647855839e+01,1.199999999997372271e+02,-4.956795971054507859e-05
3.000000297668586313e+01,1.199999999997406377e+02,-5.182086507505207401e-05
3.000000306689056018e+01,1.199999999997464073e+02,-5.431235262682769873e-05
3.000000315709706555e+01,1.199999999997504005e+02,-5.645259525343996433e-05
3.000000324730021006e+01,1.199999999997627924e+02,-5.855373824700392022e-05
3.000000333750173809e+01,1.199999999997807123e+02,-6.039917162243387054e-05
3.000000342770406192e+01,1.199999999998031797e+02,-6.361049859640980112e-05
3.000000351790722775e+01,1.199999999998314166e+02,-6.608601546533358038e-05
3.000000360810572175e+01,1.199999999998639879e+02,-6.880737488426216298e-05
3.000000369829922420e+01,1.199999999998930775e+02,-7.128791440158768907e-05
3.000000378849389193e+01,1.199999999999219256e+02,-7.291038691486066985e-05
3.000000387869084761e+01,1.199999999999594849e+02,-7.413878927495125076e-05
3.000000396889082310e+01,1.199999999999915730e+02,-7.544592182070315126e-05
3.000000405908244261e+01,1.200000000000210321e+02,-7.727944899807941527e-05
3.000000414927277603e+01,1.200000000000539302e+02,-7.942821661461396752e-05
3.000000423946353578e+01,1.200000000000811298e+02,-8.191205110248216115e-05
3.000000432964910502e+01,1.200000000001223270e+02,-8.455771153235012625e-05
3.000000441983118193e+01,1.200000000001623590e+02,-8.761758043173916940e-05
3.000000451001019286e+01,1.200000000002062706e+02,-9.184722206858365867e-05
3.000000460018506487e+01,1.200000000002526548e+02,-9.539136582585903490e-05
3.000000469036371342e+01,1.200000000002900578e+02,-9.905427815932195520e-05
3.000000478055362052e+01,1.200000000003195453e+02,-1.030682414588840251e-04
3.000000487074067834e+01,1.200000000003474838e+02,-1.070537233786050834e-04
3.000000496092447833e+01,1.200000000003806946e+02,-1.109078508708983841e-04
3.000000505110739724e+01,1.200000000004128538e+02,-1.147716651197400759e-04
3.000000514129030549e+01,1.200000000004413039e+02,-1.187506686581273074e-04
3.000000523147564024e+01,1.200000000004685035e+02,-1.227980569740688265e-04
3.000000532165195466e+01,1.200000000005016858e+02,-1.271673423153397813e-04
3.000000541182770775e+01,1.200000000005444321e+02,-1.309973772789653588e-04
3.000000550200402927e+01,1.200000000005819629e+02,-1.337220175959527894e-04
3.000000559217608753e+01,1.200000000006182432e+02,-1.358975439230441682e-04
3.000000568235445542e+01,1.200000000006602789e+02,-1.385060836750906922e-04
3.000000577253248224e+01,1.200000000007002967e+02,-1.405687198150495931e-04
3.000000586271076131e+01,1.200000000007297132e+02,-1.418236017049630498e-04
3.000000595288321392e+01,1.200000000007571401e+02,-1.431163987757900211e-04
3.000000604305766316e+01,1.200000000007832170e+02,-1.450277183011629539e-04
3.000000613323656751e+01,1.200000000008148930e+02,-1.468232316241684402e-04
3.000000622341453393e+01,1.200000000008414389e+02,-1.483269639690461359e-04
3.000000631359003478e+01,1.200000000008625136e+02,-1.494822905738556293e-04
3.000000640376379124e+01,1.200000000008815704e+02,-1.501969758754486566e-04
3.000000649394197083e+01,1.200000000009001155e+02,-1.509054009675737929e-04
3.000000658410921872e+01,1.200000000009146959e+02,-1.516641635206219055e-04
3.000000667427071832e+01,1.200000000009296599e+02,-1.526100674027608265e-04
3.000000676443796621e+01,1.200000000009446381e+02,-1.536560536779219509e-04
3.000000685460914696e+01,1.200000000009645902e+02,-1.536411297609524865e-04
3.000000694478324803e+01,1.200000000009730883e+02,-1.529925542674892883e-04
3.000000703495412324e+01,1.200000000009823964e+02,-1.515556274380603513e-04
3.000000712512664691e+01,1.200000000010036416e+02,-1.499903755630955073e-04
3.000000721529374204e+01,1.200000000010204957e+02,-1.487621015730844801e-04
3.000000730545933436e+01,1.200000000010391403e+02,-1.478127399905507830e-04
3.000000739563195751e+01,1.200000000010603856e+02,-1.468470709893481875e-04
3.000000748581079080e+01,1.200000000010872583e+02,-1.452104125839532493e-04
3.000000757598258261e+01,1.200000000011117294e+02,-1.438242705081625521e-04
3.000000766615740133e+01,1.200000000011334862e+02,-1.422666546979914814e-04
3.000000775632900130e+01,1.200000000011545893e+02,-1.413834911552015771e-04
3.000000784651048846e+01,1.200000000011810215e+02,-1.403945801306277384e-04
3.000000793668628063e+01,1.200000000012079084e+02,-1.388299866820026846e-04
3.000000802686136581e+01,1.200000000012264110e+02,-1.376910577634693348e-04
3.000000811702925674e+01,1.200000000012394850e+02,-1.364849820086285782e-04
3.000000820719251138e+01,1.200000000012567654e+02,-1.351069032874782259e-04
3.000000829736355357e+01,1.200000000012719141e+02,-1.337084068767710053e-04
3.000000838753553012e+01,1.200000000012920083e+02,-1.314292217014168733e-04
3.000000847770905565e+01,1.200000000013101555e+02,-1.285934638149447643e-04
3.000000856787922743e+01,1.200000000013359056e+02,-1.258942390211389929e-04
3.000000865805159123e+01,1.200000000013652368e+02,-1.230166130924103792e-04
3.000000874821798647e+01,1.200000000013956196e+02,-1.200844501535676444e-04
3.000000883838238153e+01,1.200000000014334347e+02,-1.174184172721282201e-04
3.000000892854714962e+01,1.200000000014765362e+02,-1.148425619691841417e-04
3.000000901871116810e+01,1.200000000015225083e+02,-1.120791729591205996e-04
3.000000910887608896e+01,1.200000000015654109e+02,-1.092657615354601311e-04
3.000000919903327556e+01,1.200000000016025297e+02,-1.054408616917223773e-04
3.000000928919227405e+01,1.200000000016512871e+02,-1.015093654641914008e-04
3.000000937935633516e+01,1.200000000017047199e+02,-9.738547861196996541e-05
3.000000946952184222e+01,1.200000000017663950e+02,-9.371031526890703203e-05
3.000000955968577188e+01,1.200000000018382309e+02,-8.956751153418788353e-05
3.000000964984877783e+01,1.200000000019110189e+02,-8.527157072281623285e-05
3.000000974000939280e+01,1.200000000019761615e+02,-8.060274598619013655e-05
3.000000983016690270e+01,1.200000000020442172e+02,-7.726873458751225797e-05
3.000000992032525815e+01,1.200000000021167352e+02,-7.391666270153797523e-05
3.000001001048680394e+01,1.200000000021860984e+02,-6.970970470226523028e-05
3.000001010065061635e+01,1.200000000022643718e+02,-6.519182406323016296e-05
3.000001019081248543e+01,1.200000000023381830e+02,-6.021534917263903657e-05
3.000001028097346989e+01,1.200000000024114826e+02,-5.545390752501456848e-05
3.000001037113161573e+01,1.200000000024809452e+02,-5.015568243238840751e-05
3.000001046128947024e+01,1.200000000025419951e+02,-4.498024730421887812e-05
3.000001055144169371e+01,1.200000000025978153e+02,-3.924652440535883507e-05
3.000001064159900821e+01,1.200000000026605420e+02,-3.368490960808967380e-05
3.000001073175580757e+01,1.200000000027208671e+02,-2.786323159768438023e-05
3.000001082191607082e+01,1.200000000027747120e+02,-2.301427333772214321e-05
3.000001091207310466e+01,1.200000000028239668e+02,-1.810008630498241339e-05
3.000001100223174078e+01,1.200000000028720848e+02,-1.237198360459409928e-05
3.000001109239021346e+01,1.200000000029247076e+02,-5.710750226452459688e-06
3.000001118254792587e+01,1.200000000029726124e+02,1.949430270509971677e-06
3.000001127270211043e+01,1.200000000030202472e+02,9.611980248262237133e-06
3.000001136284722847e+01,1.200000000030700136e+02,1.705935865530583325e-05
3.000001145298634952e+01,1.200000000031232474e+02,2.475914532911914560e-05
3.000001154312283091e+01,1.200000000031756286e+02,3.358250939457406632e-05
3.000001163325540432e+01,1.200000000032277399e+02,4.291450601609233877e-05
3.000001172339273126e+01,1.200000000032785579e+02,5.206702013123369046e-05
3.000001181353182034e+01,1.200000000033319196e+02,6.131963570671297855e-05
3.000001190367394344e+01,1.200000000033806344e+02,6.996296387472662130e-05
3.000001199381653194e+01,1.200000000034270471e+02,7.837472936651949744e-05
3.000001208395648433e+01,1.200000000034768988e+02,8.642326126554787462e-05
3.000001217409257848e+01,1.200000000035235814e+02,9.445654929671923967e-05
3.000001226423085754e+01,1.200000000035665835e+02,1.027501282389569058e-04
3.000001235437471792e+01,1.200000000036105092e+02,1.108129313954270338e-04
3.000001244451696181e+01,1.200000000036539660e+02,1.191568372483434450e-04
3.000001253466161799e+01,1.200000000037010608e+02,1.272123663242571436e-04
3.000001262480571995e+01,1.200000000037452139e+02,1.348592174639934315e-04
3.000001271494905808e+01,1.200000000037947530e+02,1.412181443519623517e-04
3.000001280508913837e+01,1.200000000038427572e+02,1.482660656879571147e-04
3.000001289523006420e+01,1.200000000039007517e+02,1.555915924558455132e-04
3.000001298537315364e+01,1.200000000039627821e+02,1.622818837490191284e-04
3.000001307552419050e+01,1.200000000040226098e+02,1.678754564842137656e-04
3.000001316567063725e+01,1.200000000040803059e+02,1.735491331903514902e-04
3.000001325581993683e+01,1.200000000041393662e+02,1.787277631805774892e-04
3.000001334597326874e+01,1.200000000042008423e+02,1.835593546108527216e-04
3.000001343612606419e+01,1.200000000042581121e+02,1.876221018359965857e-04
3.000001352628135010e+01,1.200000000043046526e+02,1.913185225125626230e-04
3.000001361643620612e+01,1.200000000043491610e+02,1.952212786639553888e-04
3.000001370659135347e+01,1.200000000043900741e+02,1.984105950950046794e-04
3.000001379675201818e+01,1.200000000044316693e+02,2.016754295713927355e-04
3.000001388691910265e+01,1.200000000044779540e+02,2.052279476515836074e-04
3.000001397707934103e+01,1.200000000045145754e+02,2.085764618317272696e-04
3.000001406723048447e+01,1.200000000045479567e+02,2.124437093536834435e-04
3.000001415738440258e+01,1.200000000045832280e+02,2.158317344212003555e-04
3.000001424753278201e+01,1.200000000046130992e+02,2.193007746223994995e-04
3.000001433768667525e+01,1.200000000046445194e+02,2.227393362846400099e-04
3.000001442784448358e+01,1.200000000046708806e+02,2.258417943759731311e-04
3.000001451800139662e+01,1.200000000047068056e+02,2.286990935204795416e-04
3.000001460815929377e+01,1.200000000047489692e+02,2.320250621131411434e-04
3.000001469831817857e+01,1.200000000047901381e+02,2.357769438197404750e-04
3.000001478848045977e+01,1.200000000048340496e+02,2.393560750463592129e-04
3.000001487863780625e+01,1.200000000048770801e+02,2.429601006738559617e-04
3.000001496879619012e+01,1.200000000049128488e+02,2.464772366058900913e-04
3.000001505895561493e+01,1.200000000049514028e+02,2.492928270283888310e-04
3.000001514912191070e+01,1.200000000049900848e+02,2.522386097648046817e-04
3.000001523929205760e+01,1.200000000050261093e+02,2.548264536438130958e-04
3.000001532947240079e+01,1.200000000050678608e+02,2.570590034192479778e-04
3.000001541965202279e+01,1.200000000051074807e+02,2.598008811504028321e-04
3.000001550981874843e+01,1.200000000051367408e+02,2.620497552873883888e-04
3.000001559998230150e+01,1.200000000051618230e+02,2.635990489161087343e-04
3.000001569013976166e+01,1.200000000051910831e+02,2.642359351236816482e-04
3.000001578029735683e+01,1.200000000052170606e+02,2.646909020775240493e-04
3.000001587044950568e+01,1.200000000052413185e+02,2.654599462036398073e-04
3.000001596060711151e+01,1.200000000052577320e+02,2.660843891366595636e-04
3.000001605075748401e+01,1.200000000052771156e+02,2.680162215166007880e-04
3.000001614090527369e+01,1.200000000052983324e+02,2.696236269287780193e-04
3.000001623105172399e+01,1.200000000053190519e+02,2.705212757818194940e-04
3.000001632119936801e+01,1.200000000053314153e+02,2.714505088181826402e-04
3.000001641135144581e+01,1.200000000053471894e+02,2.723659896012688218e-04
3.000001650150750621e+01,1.200000000053546927e+02,2.725579755445593994e-04
3.000001659165917545e+01,1.200000000053654787e+02,2.730267974154415101e-04
3.000001668181414161e+01,1.200000000053776432e+02,2.727579914110841866e-04
3.000001677196562255e+01,1.200000000053875198e+02,2.720294290350422145e-04
3.000001686211875196e+01,1.200000000053887987e+02,2.711446727037127935e-04
3.000001695227158649e+01,1.200000000053841092e+02,2.706017410625980932e-04
3.000001704243260292e+01,1.200000000053726552e+02,2.701238344776009403e-04
3.000001713259518255e+01,1.200000000053622813e+02,2.703941508716883792e-04
3.000001722276257254e+01,1.200000000053480278e+02,2.703058705247134391e-04
3.000001731292265816e+01,1.200000000053370570e+02,2.701750593200775985e-04
3.000001740307553888e+01,1.200000000053327369e+02,2.702873530249228482e-04
3.000001749323265443e+01,1.200000000053275784e+02,2.698402384102405833e-04
3.000001758338930458e+01,1.200000000053214677e+02,2.697910736491564002e-04
3.000001767353862903e+01,1.200000000053096159e+02,2.690766151341077508e-04
3.000001776368210926e+01,1.200000000052930460e+02,2.688562676533904337e-04
3.000001785382949038e+01,1.200000000052756945e+02,2.684152293493595291e-04
3.000001794397913457e+01,1.200000000052613700e+02,2.681603806310828395e-04
3.000001803412850876e+01,1.200000000052447575e+02,2.684040406924060695e-04
3.000001812427853309e+01,1.200000000052257150e+02,2.678369361738414936e-04
3.000001821442635475e+01,1.200000000052073688e+02,2.666146176971750177e-04
3.000001830457738450e+01,1.200000000051988707e+02,2.657457134975319555e-04
3.000001839472127330e+01,1.200000000051826419e+02,2.653972827761482615e-04
3.000001848486101963e+01,1.200000000051576308e+02,2.646445190771917343e-04
3.000001857500280522e+01,1.200000000051356892e+02,2.644963660989565124e-04
3.000001866514889670e+01,1.200000000051123692e+02,2.638538036182620870e-04
3.000001875529586570e+01,1.200000000050891771e+02,2.624847445033910145e-04
3.000001884543580744e+01,1.200000000050753926e+02,2.600809854944492738e-04
3.000001893557497468e+01,1.200000000050684008e+02,2.571842661551757892e-04
3.000001902571364809e+01,1.200000000050595617e+02,2.544604519269789934e-04
3.000001911584707059e+01,1.200000000050512483e+02,2.514825324359107111e-04
3.000001920598148430e+01,1.200000000050461040e+02,2.480829334167798509e-04
3.000001929611280360e+01,1.200000000050375348e+02,2.447553061703680675e-04
3.000001938624225062e+01,1.200000000050308131e+02,2.412605323334647209e-04
3.000001947636675226e+01,1.200000000050247877e+02,2.375602505920882540e-04
3.000001956649126811e+01,1.200000000050193449e+02,2.346633446165271274e-04
3.000001965661959957e+01,1.200000000050098237e+02,2.312340345459345831e-04
3.000001974674136207e+01,1.200000000050016524e+02,2.280962117466965177e-04
3.000001983686230389e+01,1.200000000049965081e+02,2.244681358430400701e-04
3.000001992698839715e+01,1.200000000049956697e+02,2.210171994632139866e-04
3.000002001711458988e+01,1.200000000050039262e+02,2.173073857455118656e-04
3.000002010724983137e+01,1.200000000050149396e+02,2.140543269036373326e-04
3.000002019738039039e+01,1.200000000050248161e+02,2.107610439846915504e-04
3.000002028751093519e+01,1.200000000050334137e+02,2.079626655110301402e-04
3.000002037763360718e+01,1.200000000050386717e+02,2.056493222732850396e-04
3.000002046776620546e+01,1.200000000050479088e+02,2.039974002476277167e-04
3.000002055789851596e+01,1.200000000050578421e+02,2.024672639128940186e-04
3.000002064804244384e+01,1.200000000050684150e+02,2.009417057672370781e-04
3.000002073819599957e+01,1.200000000050827396e+02,1.995079747335791692e-04
3.000002082835322881e+01,1.200000000051044964e+02,1.976841505500408853e-04
3.000002091851173347e+01,1.200000000051325344e+02,1.962945834870427955e-04
3.000002100866849730e+01,1.200000000051624625e+02,1.958743721918148185e-04
3.000002109882811396e+01,1.200000000051916942e+02,1.952556659555325814e-04
3.000002118898476766e+01,1.200000000052198459e+02,1.944617673843223671e-04
3.000002127913980132e+01,1.200000000052576041e+02,1.937314788279695084e-04
3.000002136929296981e+01,1.200000000052968119e+02,1.929298434548090300e-04
3.000002145944416299e+01,1.200000000053344991e+02,1.927446990062585386e-04
3.000002154959340217e+01,1.200000000053712910e+02,1.925071464385457430e-04
3.000002163974360414e+01,1.200000000054172631e+02,1.922116865503008698e-04
3.000002172989626814e+01,1.200000000054605920e+02,1.912992952213693769e-04
3.000002182005325224e+01,1.200000000055046456e+02,1.909408050824613207e-04
3.000002191020132258e+01,1.200000000055423470e+02,1.897243919967897118e-04
3.000002200034827737e+01,1.200000000055780447e+02,1.881135967032562838e-04
3.000002209050506963e+01,1.200000000056101612e+02,1.857003838335123788e-04
3.000002218066198267e+01,1.200000000056502643e+02,1.827229165364842301e-04
3.000002227081909467e+01,1.200000000056902394e+02,1.802407033530631516e-04
3.000002236096896269e+01,1.200000000057310388e+02,1.785375193733069912e-04
3.000002245112280619e+01,1.200000000057724492e+02,1.769216528331196442e-04
3.000002254127140233e+01,1.200000000058090279e+02,1.755341202503925735e-04
3.000002263141695025e+01,1.200000000058507368e+02,1.745133930113675915e-04
3.000002272156168104e+01,1.200000000059006595e+02,1.739417014284863052e-04
3.000002281171363094e+01,1.200000000059574461e+02,1.732959111641756177e-04
3.000002290185956255e+01,1.200000000060090457e+02,1.727447628142901798e-04
3.000002299200017220e+01,1.200000000060629475e+02,1.722782114547208592e-04
3.000002308213942825e+01,1.200000000061139076e+02,1.733591476613966106e-04
3.000002317227891524e+01,1.200000000061646972e+02,1.744848145114974523e-04
3.000002326241399331e+01,1.200000000062183574e+02,1.757126174924209254e-04
3.000002335254334085e+01,1.200000000062655090e+02,1.765770000331711928e-04
3.000002344266821197e+01,1.200000000063186576e+02,1.777194557046846103e-04
3.000002353278998157e+01,1.200000000063697740e+02,1.787478221962587367e-04
3.000002362291879621e+01,1.200000000064202084e+02,1.799438337827356522e-04
3.000002371304267612e+01,1.200000000064721348e+02,1.813700653492835541e-04
