pos_lat (deg),pos_lon (deg),pos_alt (m)
2.999999999999999645e+01,1.199999999999999858e+02,0.000000000000000000e+00
3.000000009021000480e+01,1.199999999999999858e+02,0.000000000000000000e+00
3.000000018041702532e+01,1.200000000000000711e+02,6.609056981512719236e-08
3.000000027061802044e+01,1.200000000000065512e+02,1.279397678112816135e-07
3.000000036081684129e+01,1.200000000000162999e+02,-5.334467749967932424e-07
3.000000045101842616e+01,1.200000000000303970e+02,-1.074852056342466657e-06
3.000000054122649473e+01,1.200000000000473932e+02,-2.132371011179915823e-06
3.000000063143586360e+01,1.200000000000698037e+02,-3.043138480265434254e-06
3.000000072165012099e+01,1.200000000000914895e+02,-3.454174404750979630e-06
3.000000081186652068e+01,1.200000000001215170e+02,-3.423737870335712066e-06
3.000000090208389025e+01,1.200000000001538467e+02,-3.538657571595114371e-06
3.000000099230028638e+01,1.200000000001838316e+02,-3.970947314201365000e-06
3.000000108250853259e+01,1.200000000002118128e+02,-4.092417317925634232e-06
3.000000117271690669e+01,1.200000000002288658e+02,-5.215657493563947506e-06
3.000000126292450631e+01,1.200000000002518163e+02,-6.246885677615612420e-06
3.000000135312841820e+01,1.200000000002715410e+02,-7.269305594135342921e-06
3.000000144333757035e+01,1.200000000002978453e+02,-8.383445795043337022e-06
3.000000153354400823e+01,1.200000000003315819e+02,-8.431529017523944290e-06
3.000000162374463741e+01,1.200000000003630021e+02,-8.488387769325403704e-06
3.000000171394454895e+01,1.200000000003909690e+02,-8.428412936605683589e-06
3.000000180414112450e+01,1.200000000004226024e+02,-7.515074891762163555e-06
3.000000189434411624e+01,1.200000000004491625e+02,-6.997270273464588214e-06
3.000000198455004252e+01,1.200000000004693135e+02,-5.828871831481818804e-06
3.000000207475896374e+01,1.200000000004848602e+02,-4.391893459582640430e-06
3.000000216496951211e+01,1.200000000004893934e+02,-3.098942541831446840e-06
3.000000225518148156e+01,1.200000000004935856e+02,-2.101899132879083796e-06
3.000000234539243138e+01,1.200000000004960299e+02,-1.635828866851345371e-06
3.000000243559563273e+01,1.200000000004994973e+02,-1.212306899426680097e-06
3.000000252579482307e+01,1.200000000005069154e+02,-9.831813758012155106e-07
3.000000261599123164e+01,1.200000000005033769e+02,-8.310578362622763572e-07
3.000000270618066622e+01,1.200000000005112923e+02,-4.578692168093959627e-07
3.000000279636871880e+01,1.200000000005124718e+02,-2.772572920644499490e-07
3.000000288655325775e+01,1.200000000005119318e+02,1.293289900170528342e-07
3.000000297673982530e+01,1.200000000005095444e+02,2.271671540350926690e-08
3.000000306692417240e+01,1.200000000005064322e+02,-4.084503530920213861e-07
3.000000315711341159e+01,1.200000000005014726e+02,-5.305863034400968503e-07
3.000000324730134338e+01,1.200000000004983463e+02,-6.837552109275707106e-07
3.000000333749107284e+01,1.200000000004842491e+02,-5.629915958008228031e-07
3.000000342768348460e+01,1.200000000004722978e+02,2.007244913288691699e-07
3.000000351787769404e+01,1.200000000004588827e+02,1.705422706751910092e-06
3.000000360807138478e+01,1.200000000004440750e+02,3.459326371968409498e-06
3.000000369826970825e+01,1.200000000004265672e+02,4.378515346990943912e-06
3.000000378846136684e+01,1.200000000004171312e+02,5.183661041445015488e-06
3.000000387865203777e+01,1.200000000004049667e+02,5.735791624048176163e-06
3.000000396883273268e+01,1.200000000003972360e+02,6.210816277241719875e-06
3.000000405901683465e+01,1.200000000003856968e+02,6.308891225677676861e-06
3.000000414919412250e+01,1.200000000003791456e+02,6.126382113976758722e-06
3.000000423937551730e+01,1.200000000003682459e+02,6.464593172983714543e-06
3.000000432955088314e+01,1.200000000003539924e+02,7.989380697187327131e-06
3.000000441972287746e+01,1.200000000003358025e+02,9.675210680477962816e-06
3.000000450989321266e+01,1.200000000003193463e+02,1.079381996451123340e-05
3.000000460005713521e+01,1.200000000003002327e+02,1.201004583724178507e-05
3.000000469021983918e+01,1.200000000002851976e+02,1.331274733072375576e-05
3.000000478038017704e+01,1.200000000002742127e+02,1.506844792575150680e-05
3.000000487054471066e+01,1.200000000002558807e+02,1.680066115151287944e-05
3.000000496070447298e+01,1.200000000002391971e+02,1.812275958078414908e-05
3.000000505085940361e+01,1.200000000002229115e+02,1.938691961196376164e-05
3.000000514100805304e+01,1.200000000002112870e+02,2.022009597011879061e-05
3.000000523115909346e+01,1.200000000001972040e+02,2.168093234087775930e-05
3.000000532131396369e+01,1.200000000001799094e+02,2.345193138309844630e-05
3.000000541146926025e+01,1.200000000001631406e+02,2.494247398900294348e-05
3.000000550161799850e+01,1.200000000001519425e+02,2.611407256265243452e-05
3.000000559176638149e+01,1.200000000001435012e+02,2.779462920786123726e-05
3.000000568190925065e+01,1.200000000001328431e+02,2.933598419758323995e-05
3.000000577205411290e+01,1.200000000001168132e+02,3.187586834889134969e-05
3.000000586220978605e+01,1.200000000000999592e+02,3.425679362352061845e-05
3.000000595236601697e+01,1.200000000000781313e+02,3.689780166090563646e-05
3.000000604252493375e+01,1.200000000000564739e+02,3.975190382622629056e-05
3.000000613267726735e+01,1.200000000000309370e+02,4.194151118941027702e-05
3.000000622282318830e+01,1.200000000000001421e+02,4.456868231104120791e-05
3.000000631296273568e+01,1.199999999999743494e+02,4.743659081962203793e-05
3.000000640310719291e+01,1.199999999999458993e+02,4.925379092245826178e-05
3.000000649324769242e+01,1.199999999999026983e+02,5.119173811603220802e-05
3.000000658339023119e+01,1.199999999998571667e+02,5.313479688060121595e-05
3.000000667352639994e+01,1.199999999998049134e+02,5.556872461778009981e-05
3.000000676366256158e+01,1.199999999997527027e+02,5.757319012401063005e-05
3.000000685380836885e+01,1.199999999997055227e+02,5.864826579120258976e-05
3.000000694395234291e+01,1.199999999996669970e+02,5.997183618474471539e-05
3.000000703409509484e+01,1.199999999996293951e+02,6.157590946767542406e-05
3.000000712423636529e+01,1.199999999995951754e+02,6.383826186526110472e-05
3.000000721437806916e+01,1.199999999995501128e+02,6.637144777873377514e-05
3.000000730451662179e+01,1.199999999995008721e+02,6.902078097465536098e-05
3.000000739465539468e+01,1.199999999994496989e+02,7.249242255665846980e-05
3.000000748479796187e+01,1.199999999993874695e+02,7.628043562051648754e-05
3.000000757494233028e+01,1.199999999993316919e+02,7.973800511534540438e-05
3.000000766508222583e+01,1.199999999992708837e+02,8.293222569757916786e-05
3.000000775522506302e+01,1.199999999992121360e+02,8.684976356081758222e-05
3.000000784536820220e+01,1.199999999991440092e+02,9.075812623921336521e-05
3.000000793550889711e+01,1.199999999990791082e+02,9.570576672728245957e-05
3.000000802564602509e+01,1.199999999990102566e+02,1.005425979250900288e-04
3.000000811578047077e+01,1.199999999989350101e+02,1.055683592636933013e-04
3.000000820591172968e+01,1.199999999988619948e+02,1.104016979654501545e-04
3.000000829604601549e+01,1.199999999987924468e+02,1.149141617891842138e-04
3.000000838618768029e+01,1.199999999987263664e+02,1.196847303924486721e-04
3.000000847632393075e+01,1.199999999986536778e+02,1.246579564391560606e-04
3.000000856645921488e+01,1.199999999985756176e+02,1.296334416176150731e-04
3.000000865658901006e+01,1.199999999984962500e+02,1.352479561088782551e-04
3.000000874672155504e+01,1.199999999984104733e+02,1.409499084959306067e-04
3.000000883685432029e+01,1.199999999983317309e+02,1.470547405232509874e-04
3.000000892698135502e+01,1.199999999982474321e+02,1.535644147492409145e-04
3.000000901710246026e+01,1.199999999981654781e+02,1.597978813111721407e-04
3.000000910722918945e+01,1.199999999980768450e+02,1.656872542477548765e-04
3.000000919735541061e+01,1.199999999979815044e+02,1.712773969920495111e-04
3.000000928747885709e+01,1.199999999978825542e+02,1.778160696187216692e-04
3.000000937760362874e+01,1.199999999977837604e+02,1.839723218012128130e-04
3.000000946772561150e+01,1.199999999976898692e+02,1.899243003426474602e-04
3.000000955785014511e+01,1.199999999975964045e+02,1.953930829179391208e-04
3.000000964797306580e+01,1.199999999974964595e+02,2.004617788187772415e-04
3.000000973809565963e+01,1.199999999973988878e+02,2.056843989124854328e-04
3.000000982821977402e+01,1.199999999972938411e+02,2.100693359539076619e-04
3.000000991834822628e+01,1.199999999971837781e+02,2.151640615633380611e-04
3.000001000848035559e+01,1.199999999970747240e+02,2.205069201520104734e-04
3.000001009861326295e+01,1.199999999969608098e+02,2.257535335825284540e-04
3.000001018874014491e+01,1.199999999968443518e+02,2.310523313195372180e-04
3.000001027886976246e+01,1.199999999967305655e+02,2.364378668503299200e-04
3.000001036899470819e+01,1.199999999966219377e+02,2.424904441805393726e-04
3.000001045911981734e+01,1.199999999965122726e+02,2.485167805323895934e-04
3.000001054924736010e+01,1.199999999964074675e+02,2.541611790619118178e-04
3.000001063937481405e+01,1.199999999962941928e+02,2.603664229060852534e-04
3.000001072950374947e+01,1.199999999961832771e+02,2.670122480973312101e-04
3.000001081963381466e+01,1.199999999960783725e+02,2.735151396528292850e-04
3.000001090976500606e+01,1.199999999959777028e+02,2.797253190921414725e-04
3.000001099990364040e+01,1.199999999958766495e+02,2.853891373862349175e-04
3.000001109003930466e+01,1.199999999957757808e+02,2.903231759711538186e-04
3.000001118017796031e+01,1.199999999956717147e+02,2.951722806073655355e-04
3.000001127031449144e+01,1.199999999955685581e+02,2.994450047426163645e-04
3.000001136044319949e+01,1.199999999954694090e+02,3.037890271700144492e-04
3.000001145056628005e+01,1.199999999953657124e+02,3.084272994193330299e-04
3.000001154069254383e+01,1.199999999952781593e+02,3.128990188725425266e-04
3.000001163082053068e+01,1.199999999951873093e+02,3.170139734200866648e-04
3.000001172094724211e+01,1.199999999950907608e+02,3.203400896353575259e-04
3.000001181107649018e+01,1.199999999949921232e+02,3.227281016755707312e-04
3.000001190120054062e+01,1.199999999948840781e+02,3.247660277029121626e-04
3.000001199132228180e+01,1.199999999947642095e+02,3.264790250642190541e-04
3.000001208144905718e+01,1.199999999946427920e+02,3.287023884507519773e-04
3.000001217157920763e+01,1.199999999945135301e+02,3.305485231504509181e-04
3.000001226170781976e+01,1.199999999943829749e+02,3.322862879018690621e-04
3.000001235183019332e+01,1.199999999942540256e+02,3.338556209619910633e-04
3.000001244194898220e+01,1.199999999941262985e+02,3.362249454625234149e-04
3.000001253207983254e+01,1.199999999939982303e+02,3.384382975183071246e-04
3.000001262220956733e+01,1.199999999938687978e+02,3.412298292336948076e-04
3.000001271233777800e+01,1.199999999937418096e+02,3.440245846692522604e-04
3.000001280246882018e+01,1.199999999936081707e+02,3.462883217398389155e-04
3.000001289260944048e+01,1.199999999934769477e+02,3.490124892234900051e-04
3.000001298275094186e+01,1.199999999933502153e+02,3.512263070345470395e-04
3.000001307288551189e+01,1.199999999932180259e+02,3.544412835828291927e-04
3.000001316301835530e+01,1.199999999930895171e+02,3.577940870291586566e-04
3.000001325313601441e+01,1.199999999929634527e+02,3.614651798188204201e-04
3.000001334324632296e+01,1.199999999928281511e+02,3.648733251466770942e-04
3.000001343335173232e+01,1.199999999926880747e+02,3.689195056972551716e-04
3.000001352345261552e+01,1.199999999925446730e+02,3.727116523463712742e-04
3.000001361355188223e+01,1.199999999924033460e+02,3.763437130183407793e-04
3.000001370365074393e+01,1.199999999922607543e+02,3.797016764612717930e-04
3.000001379375086685e+01,1.199999999921139704e+02,3.833108753982469342e-04
3.000001388384874090e+01,1.199999999919631648e+02,3.876270693248037988e-04
3.000001397395297076e+01,1.199999999918153577e+02,3.923320784203233598e-04
3.000001406405753102e+01,1.199999999916724107e+02,3.963103645631586109e-04
3.000001415415854922e+01,1.199999999915273463e+02,4.005108152624575583e-04
3.000001424426994845e+01,1.199999999913851383e+02,4.041925233248054149e-04
3.000001433438137255e+01,1.199999999912407418e+02,4.071431809585620469e-04
3.000001442448588307e+01,1.199999999910947963e+02,4.098818258872506930e-04
3.000001451459088742e+01,1.199999999909435076e+02,4.130632999014818754e-04
3.000001460470069503e+01,1.199999999907890071e+02,4.164050480330806683e-04
3.000001469480553595e+01,1.199999999906347057e+02,4.192785086326682436e-04
3.000001478490598927e+01,1.199999999904809727e+02,4.215035658353610349e-04
3.000001487500684760e+01,1.199999999903428147e+02,4.242411203108351937e-04
3.000001496510900978e+01,1.199999999901976224e+02,4.274032936520333814e-04
3.000001505521673195e+01,1.199999999900496448e+02,4.301301173109049985e-04
3.000001514531776081e+01,1.199999999898866889e+02,4.325406008800068594e-04
3.000001523541113357e+01,1.199999999897155050e+02,4.343938241867562641e-04
3.000001532550566807e+01,1.199999999895422462e+02,4.363037396697173214e-04
3.000001541559465679e+01,1.199999999893796883e+02,4.371207777570791067e-04
3.000001550568661557e+01,1.199999999892185230e+02,4.380538913657775098e-04
3.000001559576958954e+01,1.199999999890561639e+02,4.393791794366662048e-04
3.000001568584741207e+01,1.199999999888985087e+02,4.405123899214095050e-04
3.000001577592201940e+01,1.199999999887412656e+02,4.419678324805178756e-04
3.000001586599043080e+01,1.199999999885885416e+02,4.441523486416124457e-04
3.000001595606116922e+01,1.199999999884408624e+02,4.465103758949044016e-04
3.000001604613487061e+01,1.199999999882890052e+02,4.483633755516129365e-04
3.000001613620052865e+01,1.199999999881363237e+02,4.502735844393182876e-04
3.000001622626915321e+01,1.199999999879800612e+02,4.530283985302513482e-04
3.000001631633952925e+01,1.199999999878229460e+02,4.556880871834049097e-04
3.000001640640967793e+01,1.199999999876600185e+02,4.588755432933109201e-04
3.000001649648088176e+01,1.199999999874932826e+02,4.626991088412641903e-04
3.000001658655299863e+01,1.199999999873279677e+02,4.677108666421495161e-04
3.000001667662884586e+01,1.199999999871611323e+02,4.729296792831941721e-04
3.000001676669984008e+01,1.199999999869977074e+02,4.782707227435666953e-04
3.000001685676599905e+01,1.199999999868368263e+02,4.834393844082533883e-04
3.000001694683108155e+01,1.199999999866767553e+02,4.878710574720694399e-04
3.000001703689608945e+01,1.199999999865094225e+02,4.918522793450315692e-04
3.000001712695737410e+01,1.199999999863402422e+02,4.962033463351632045e-04
3.000001721702236424e+01,1.199999999861659319e+02,5.011080823792255119e-04
3.000001730708482839e+01,1.199999999859810202e+02,5.062463482757560175e-04
3.000001739714264559e+01,1.199999999857970323e+02,5.113465205223719293e-04
3.000001748720013950e+01,1.199999999856028410e+02,5.166305934844239505e-04
3.000001757726399632e+01,1.199999999854046848e+02,5.222435042402924586e-04
3.000001766732497188e+01,1.199999999852028765e+02,5.277879652642279706e-04
3.000001775738639864e+01,1.199999999850017929e+02,5.332004752906919533e-04
3.000001784744338806e+01,1.199999999848039351e+02,5.381936621614002167e-04
3.000001793750046630e+01,1.199999999846031784e+02,5.437285050763554636e-04
3.000001802755421920e+01,1.199999999844017111e+02,5.487332067796316451e-04
3.000001811760773762e+01,1.199999999842004144e+02,5.537995818773381977e-04
3.000001820765703897e+01,1.199999999839930922e+02,5.587409694835742107e-04
3.000001829770526030e+01,1.199999999837930602e+02,5.643066216362815002e-04
3.000001838775617813e+01,1.199999999835944351e+02,5.707486410385140914e-04
3.000001847781280873e+01,1.199999999833945452e+02,5.770565223720545197e-04
3.000001856786908760e+01,1.199999999831914153e+02,5.841664946417788207e-04
3.000001865792412659e+01,1.199999999829824446e+02,5.912152454462600744e-04
3.000001874797878543e+01,1.199999999827700066e+02,5.988388081533903198e-04
3.000001883802820046e+01,1.199999999825545984e+02,6.066318314599525915e-04
3.000001892808709414e+01,1.199999999823398156e+02,6.141418030657148528e-04
3.000001901815255323e+01,1.199999999821270080e+02,6.211421078702679312e-04
3.000001910821520212e+01,1.199999999819249012e+02,6.288940729884792604e-04
3.000001919827953500e+01,1.199999999817261056e+02,6.361949411902284839e-04
3.000001928834279141e+01,1.199999999815310190e+02,6.431256547004850482e-04
3.000001937840618282e+01,1.199999999813347955e+02,6.505780899055144204e-04
3.000001946846477452e+01,1.199999999811406752e+02,6.577884567171609145e-04
3.000001955852074786e+01,1.199999999809470665e+02,6.641968369913716459e-04
3.000001964858212133e+01,1.199999999807582753e+02,6.713112254470833757e-04
3.000001973864299032e+01,1.199999999805650930e+02,6.788517874460165509e-04
3.000001982869902051e+01,1.199999999803660131e+02,6.865601843895844519e-04
3.000001991875200602e+01,1.199999999801681838e+02,6.940967194772950733e-04
3.000002000880525088e+01,1.199999999799665460e+02,7.020937538219251166e-04
3.000002009886933152e+01,1.199999999797616397e+02,7.094231083762095238e-04
3.000002018893491140e+01,1.199999999795608119e+02,7.165975211596287142e-04
3.000002027899580170e+01,1.199999999793711396e+02,7.245125298598047592e-04
3.000002036905356917e+01,1.199999999791869527e+02,7.329584204863647196e-04
3.000002045911637083e+01,1.199999999790102123e+02,7.415933681125276827e-04
3.000002054917525740e+01,1.199999999788433200e+02,7.498236542056574677e-04
3.000002063922998019e+01,1.199999999786857217e+02,7.565712415445748594e-04
3.000002072928692698e+01,1.199999999785294449e+02,7.631612953135059017e-04
3.000002081933580200e+01,1.199999999783755271e+02,7.690199510091031906e-04
3.000002090938169630e+01,1.199999999782235705e+02,7.751617410368597102e-04
3.000002099942411959e+01,1.199999999780776250e+02,7.825596435068165723e-04
3.000002108946562984e+01,1.199999999779253841e+02,7.899232787874066724e-04
3.000002117950822722e+01,1.199999999777746069e+02,7.975573143084940071e-04
3.000002126954542447e+01,1.199999999776226502e+02,8.054595521349672098e-04
3.000002135958045102e+01,1.199999999774678940e+02,8.129209381876416861e-04
3.000002144961871053e+01,1.199999999773026076e+02,8.194878017728106151e-04
3.000002153965612095e+01,1.199999999771438866e+02,8.258868344309145152e-04
3.000002162969082065e+01,1.199999999769812717e+02,8.318273290263858248e-04
3.000002171972518994e+01,1.199999999768051282e+02,8.381969327591770082e-04
3.000002180976055755e+01,1.199999999766419165e+02,8.447695968793708958e-04
3.000002189979197098e+01,1.199999999764792307e+02,8.511350937700141485e-04
3.000002198982124213e+01,1.199999999763086720e+02,8.570228205290424247e-04
3.000002207984620028e+01,1.199999999761367206e+02,8.627957201933966411e-04
3.000002216987197556e+01,1.199999999759731679e+02,8.689706069205247385e-04
3.000002225990071381e+01,1.199999999758198328e+02,8.756132315399223470e-04
3.000002234992118133e+01,1.199999999756671656e+02,8.825009378154115205e-04
3.000002243993718309e+01,1.199999999755086009e+02,8.894370967461138078e-04
3.000002252994638852e+01,1.199999999753563458e+02,8.964739129832658728e-04
3.000002261995672370e+01,1.199999999752027833e+02,9.030776055917794825e-04
3.000002270996266063e+01,1.199999999750556157e+02,9.102288647520964410e-04
3.000002279996278531e+01,1.199999999749122139e+02,9.178195918903102584e-04
3.000002288995798594e+01,1.199999999747635684e+02,9.252175986957369633e-04
3.000002297994564771e+01,1.199999999746093664e+02,9.320290469665270389e-04
3.000002306993593137e+01,1.199999999744551786e+02,9.390804373976492560e-04
3.000002315992729152e+01,1.199999999742962302e+02,9.471109100743392703e-04
3.000002324991668345e+01,1.199999999741303327e+02,9.556436664101379541e-04
3.000002333990671843e+01,1.199999999739663394e+02,9.648829453546283689e-04
3.000002342989741422e+01,1.199999999737971024e+02,9.739923652341159763e-04
3.000002351988896976e+01,1.199999999736314606e+02,9.842567523974258062e-04
3.000002360988385774e+01,1.199999999734736775e+02,9.938064736428129774e-04
3.000002369988278161e+01,1.199999999733194613e+02,1.003784858167358542e-03
3.000002378987811014e+01,1.199999999731570313e+02,1.012764855694375798e-03
