pos_lat (deg),pos_lon (deg),pos_alt (m)
2.999999999999999645e+01,1.199999999999999858e+02,0.000000000000000000e+00
3.000000009021000480e+01,1.199999999999999858e+02,0.000000000000000000e+00
3.000000018042297256e+01,1.200000000000032969e+02,-9.055078765811439429e-07
3.000000027062898056e+01,1.200000000000077307e+02,-1.987125115162601680e-06
3.000000036084043487e+01,1.200000000000156604e+02,-2.552953833501106473e-06
3.000000045105050006e+01,1.200000000000199663e+02,-2.893693238517541537e-06
3.000000054126153870e+01,1.200000000000289475e+02,-3.874190467256771624e-06
3.000000063147119889e+01,1.200000000000319460e+02,-4.432230775774965726e-06
3.000000072168089460e+01,1.200000000000315197e+02,-5.492977297309226198e-06
3.000000081188952450e+01,1.200000000000379998e+02,-6.707553897101699753e-06
3.000000090209762504e+01,1.200000000000412825e+02,-8.333205942358044065e-06
3.000000099230934936e+01,1.200000000000483880e+02,-1.043537405055061351e-05
3.000000108252283937e+01,1.200000000000479332e+02,-1.268553852158031350e-05
3.000000117273192046e+01,1.200000000000576676e+02,-1.427229481412270093e-05
3.000000126294193237e+01,1.200000000000683400e+02,-1.503811864627991828e-05
3.000000135315530159e+01,1.200000000000848530e+02,-1.507656038302323640e-05
3.000000144336645036e+01,1.200000000001027303e+02,-1.448043902412322338e-05
3.000000153358292110e+01,1.200000000001296030e+02,-1.419578064255947074e-05
3.000000162379303603e+01,1.200000000001635954e+02,-1.465519723014917712e-05
3.000000171399565474e+01,1.200000000001920455e+02,-1.550803912532838530e-05
3.000000180419381834e+01,1.200000000002154792e+02,-1.638879991164412440e-05
3.000000189440318010e+01,1.200000000002449951e+02,-1.749286084787940465e-05
3.000000198461725986e+01,1.200000000002684999e+02,-1.855672274164951751e-05
3.000000207481948067e+01,1.200000000002924310e+02,-2.032562376568182634e-05
3.000000216501768335e+01,1.200000000003197300e+02,-2.278625922983069799e-05
3.000000225521372599e+01,1.200000000003461338e+02,-2.412696809113115031e-05
3.000000234541314725e+01,1.200000000003722676e+02,-2.481997827303705835e-05
3.000000243561130731e+01,1.200000000004123137e+02,-2.556485497498947864e-05
3.000000252580882787e+01,1.200000000004477130e+02,-2.458897629245350604e-05
3.000000261600139595e+01,1.200000000004809095e+02,-2.380055682807044446e-05
3.000000270619457154e+01,1.200000000005069722e+02,-2.276346034822992920e-05
3.000000279638572565e+01,1.200000000005263843e+02,-2.183772734061767401e-05
3.000000288657518865e+01,1.200000000005444463e+02,-2.087293991213286519e-05
3.000000297676229977e+01,1.200000000005515517e+02,-1.877488583157887965e-05
3.000000306693906893e+01,1.200000000005671410e+02,-1.660009114934730349e-05
3.000000315712131282e+01,1.200000000005810676e+02,-1.445398010600148364e-05
3.000000324730038770e+01,1.200000000005989591e+02,-1.181433086703670783e-05
3.000000333746892167e+01,1.200000000006040608e+02,-9.620637766253044995e-06
3.000000342764419869e+01,1.200000000006157279e+02,-7.189100835449480659e-06
3.000000351781479324e+01,1.200000000006249081e+02,-4.691120416625518812e-06
3.000000360798090426e+01,1.200000000006349836e+02,-1.648066462925641460e-06
3.000000369815367662e+01,1.200000000006503029e+02,6.459532381930115220e-07
3.000000378832799441e+01,1.200000000006636611e+02,2.900125607568233127e-06
3.000000387850042571e+01,1.200000000006784973e+02,5.064709753809843216e-06
3.000000396867854846e+01,1.200000000006831726e+02,7.434566211054167201e-06
3.000000405885899468e+01,1.200000000006872938e+02,9.646622512902800351e-06
3.000000414904341284e+01,1.200000000006909602e+02,1.185074152999044163e-05
3.000000423923104620e+01,1.200000000007051142e+02,1.365978362418798536e-05
3.000000432940506911e+01,1.200000000007233751e+02,1.621928322325804657e-05
3.000000441957962849e+01,1.200000000007400160e+02,1.802853000265089531e-05
3.000000450975823085e+01,1.200000000007589023e+02,2.016481442772569756e-05
3.000000459994114621e+01,1.200000000007792522e+02,2.341499912719943833e-05
3.000000469012330839e+01,1.200000000008007532e+02,2.665015996491552769e-05
3.000000478030493412e+01,1.200000000008179057e+02,3.116013551647843017e-05
3.000000487048709985e+01,1.200000000008406715e+02,3.619786945313763221e-05
3.000000496066494549e+01,1.200000000008625562e+02,4.177830290241871551e-05
3.000000505084570079e+01,1.200000000008968044e+02,4.727360908282824715e-05
3.000000514102421434e+01,1.200000000009260930e+02,5.267535387498865164e-05
3.000000523120464635e+01,1.200000000009537047e+02,5.778210631329997734e-05
3.000000532138806975e+01,1.200000000009827801e+02,6.288871146151596057e-05
3.000000541157076484e+01,1.200000000010234231e+02,6.767943588195123364e-05
3.000000550175639802e+01,1.200000000010593908e+02,7.323154485633121295e-05
3.000000559194222660e+01,1.200000000010922889e+02,7.918553451614778230e-05
3.000000568213159369e+01,1.200000000011338273e+02,8.512571867108726319e-05
3.000000577232294674e+01,1.200000000011770709e+02,9.021665676634153873e-05
3.000000586251384149e+01,1.200000000012221193e+02,9.526346576272748477e-05
3.000000595270493164e+01,1.200000000012717578e+02,1.000210784572669385e-04
3.000000604290050177e+01,1.200000000013256454e+02,1.041269686842095183e-04
3.000000613309166653e+01,1.200000000013861268e+02,1.084045824281897031e-04
3.000000622329318389e+01,1.200000000014399717e+02,1.121693285999663048e-04
3.000000631349063696e+01,1.200000000014936035e+02,1.162125050836361478e-04
3.000000640368730487e+01,1.200000000015497363e+02,1.200306555311170741e-04
3.000000649388944751e+01,1.200000000016010517e+02,1.240389738067116266e-04
3.000000658409656751e+01,1.200000000016526087e+02,1.276390454508696869e-04
3.000000667429775802e+01,1.200000000016984529e+02,1.312082494017440296e-04
3.000000676449990777e+01,1.200000000017527526e+02,1.344755202906387814e-04
3.000000685470241635e+01,1.200000000018064412e+02,1.378976742974373016e-04
3.000000694489810016e+01,1.200000000018553266e+02,1.413141868212767604e-04
3.000000703509616784e+01,1.200000000019009150e+02,1.441355176263399451e-04
3.000000712530006908e+01,1.200000000019525999e+02,1.476872198662830819e-04
3.000000721549807636e+01,1.200000000020068143e+02,1.516827527958228999e-04
3.000000730569297502e+01,1.200000000020592807e+02,1.556768087242576106e-04
3.000000739589474108e+01,1.200000000021094877e+02,1.603105572723384519e-04
3.000000748609357260e+01,1.200000000021603199e+02,1.648046855847624937e-04
3.000000757629262793e+01,1.200000000022115927e+02,1.690203275849426023e-04
3.000000766648957651e+01,1.200000000022616007e+02,1.736795812779808696e-04
3.000000775668358344e+01,1.200000000023166251e+02,1.787038865213775750e-04
3.000000784687219380e+01,1.200000000023771634e+02,1.826228446694286539e-04
3.000000793706274749e+01,1.200000000024414391e+02,1.870211793114880453e-04
3.000000802724875726e+01,1.200000000025070079e+02,1.914625940967611974e-04
3.000000811743377938e+01,1.200000000025795543e+02,1.956739038656304486e-04
3.000000820761971099e+01,1.200000000026507223e+02,1.997068592644809810e-04
3.000000829781172484e+01,1.200000000027234819e+02,2.040401385709775326e-04
3.000000838800197656e+01,1.200000000027857538e+02,2.070311858509867986e-04
3.000000847820095373e+01,1.200000000028417020e+02,2.100036182604127027e-04
3.000000856839550778e+01,1.200000000029007907e+02,2.129697715647951275e-04
3.000000865858863364e+01,1.200000000029616984e+02,2.153688994426908071e-04
3.000000874877789769e+01,1.200000000030252636e+02,2.185581460566594057e-04
3.000000883896933956e+01,1.200000000030869813e+02,2.223537067739133244e-04
3.000000892915688766e+01,1.200000000031464253e+02,2.258872499352284930e-04
3.000000901934047093e+01,1.200000000032018193e+02,2.296181005886634391e-04
3.000000910952881483e+01,1.200000000032530920e+02,2.344998678036395957e-04
3.000000919972239188e+01,1.200000000033117686e+02,2.395280599767518918e-04
3.000000928991747173e+01,1.200000000033682284e+02,2.445888217398529312e-04
3.000000938010742502e+01,1.200000000034210785e+02,2.491301795438280150e-04
3.000000947030196841e+01,1.200000000034715555e+02,2.537899438250276599e-04
3.000000956048898715e+01,1.200000000035278873e+02,2.580588959406311753e-04
3.000000965066902481e+01,1.200000000035882977e+02,2.617062153311549839e-04
3.000000974085068606e+01,1.200000000036584424e+02,2.652043011876686679e-04
3.000000983103512908e+01,1.200000000037349821e+02,2.677550190433827565e-04
3.000000992121934473e+01,1.200000000038114649e+02,2.706444948778397768e-04
3.000001001140826062e+01,1.200000000038929642e+02,2.743362535985186738e-04
3.000001010159543213e+01,1.200000000039768508e+02,2.780272526751985536e-04
3.000001019178455763e+01,1.200000000040597286e+02,2.809018406091798249e-04
3.000001028197432618e+01,1.200000000041461163e+02,2.840289583505830532e-04
3.000001037216436117e+01,1.200000000042260524e+02,2.879946073480405878e-04
3.000001046235560409e+01,1.200000000043028763e+02,2.915537410320344055e-04
3.000001055254198334e+01,1.200000000043939110e+02,2.940825801279590523e-04
3.000001064272698414e+01,1.200000000044907864e+02,2.966217719927221404e-04
3.000001073291750942e+01,1.200000000045841659e+02,2.994125092556163405e-04
3.000001082311055356e+01,1.200000000046843667e+02,3.026851948572561101e-04
3.000001091330362257e+01,1.200000000047967461e+02,3.056482618535377662e-04
3.000001100349425442e+01,1.200000000049029865e+02,3.080533987378875158e-04
3.000001109368565366e+01,1.200000000050066404e+02,3.105868670882623128e-04
3.000001118388200183e+01,1.200000000051031321e+02,3.132090926053901015e-04
3.000001127407639601e+01,1.200000000051994533e+02,3.158877917052285494e-04
3.000001136427514581e+01,1.200000000052971103e+02,3.178238445968375732e-04
3.000001145447203754e+01,1.200000000054061218e+02,3.199743576103820583e-04
3.000001154467214803e+01,1.200000000055262461e+02,3.220936916005616175e-04
3.000001163487624112e+01,1.200000000056406719e+02,3.249079531029335291e-04
3.000001172508263636e+01,1.200000000057575562e+02,3.280783109958151315e-04
3.000001181529159666e+01,1.200000000058769416e+02,3.314871306287868599e-04
3.000001190549738794e+01,1.200000000059959149e+02,3.349607769496210996e-04
3.000001199571324761e+01,1.200000000061164798e+02,3.391211358488609227e-04
3.000001208593193525e+01,1.200000000062425300e+02,3.447215957690898049e-04
3.000001217615613314e+01,1.200000000063695467e+02,3.499438494931617614e-04
3.000001226638027774e+01,1.200000000064978849e+02,3.557492602663873114e-04
3.000001235660872823e+01,1.200000000066312396e+02,3.607119297012448050e-04
3.000001244684180790e+01,1.200000000067629458e+02,3.657084147177721840e-04
3.000001253707704407e+01,1.200000000069004784e+02,3.706513842894318725e-04
3.000001262730830121e+01,1.200000000070490671e+02,3.761087182158452473e-04
3.000001271753903964e+01,1.200000000071948705e+02,3.813323526691037328e-04
3.000001280776917056e+01,1.200000000073361548e+02,3.872704824420030107e-04
3.000001289799873305e+01,1.200000000074738153e+02,3.943944543442775923e-04
3.000001298822959228e+01,1.200000000076124138e+02,4.014920552702169352e-04
3.000001307846913434e+01,1.200000000077535987e+02,4.086174771485448043e-04
3.000001316870049095e+01,1.200000000078932629e+02,4.164321775957431247e-04
3.000001325892289827e+01,1.200000000080438696e+02,4.235445867182525775e-04
3.000001334914029982e+01,1.200000000081877118e+02,4.304961003146608677e-04
3.000001343935657516e+01,1.200000000083254150e+02,4.373782948176631064e-04
3.000001352957875866e+01,1.200000000084681488e+02,4.443067482914030684e-04
3.000001361980771719e+01,1.200000000086144638e+02,4.526952316209202263e-04
3.000001371002766248e+01,1.200000000087606367e+02,4.613260156782992834e-04
3.000001380024644959e+01,1.200000000089078895e+02,4.699364817475826977e-04
3.000001389046697753e+01,1.200000000090580841e+02,4.786496826464872885e-04
3.000001398068123137e+01,1.200000000092139345e+02,4.866531817797819593e-04
3.000001407089370176e+01,1.200000000093786525e+02,4.953177686210330326e-04
3.000001416110445263e+01,1.200000000095404289e+02,5.036524722263382688e-04
3.000001425131394583e+01,1.200000000097004289e+02,5.118237458667285232e-04
3.000001434152682478e+01,1.200000000098748245e+02,5.195777980460573138e-04
3.000001443173576021e+01,1.200000000100473443e+02,5.271326598289494342e-04
3.000001452194102924e+01,1.200000000102134834e+02,5.354271022134305313e-04
3.000001461214281306e+01,1.200000000103808162e+02,5.431788762256949295e-04
3.000001470233798173e+01,1.200000000105479074e+02,5.512983471541910065e-04
3.000001479252919978e+01,1.200000000107148992e+02,5.598156301656232077e-04
3.000001488271270134e+01,1.200000000108884279e+02,5.681388884541659643e-04
3.000001497290359964e+01,1.200000000110636336e+02,5.765209998676998826e-04
3.000001506310401211e+01,1.200000000112337801e+02,5.849722611835762951e-04
3.000001515330695412e+01,1.200000000114107337e+02,5.925157585207886613e-04
3.000001524351942805e+01,1.200000000115904442e+02,5.996122285298808013e-04
3.000001533373809082e+01,1.200000000117630066e+02,6.069728891506032988e-04
3.000001542395514065e+01,1.200000000119303820e+02,6.146425328017864021e-04
3.000001551417247114e+01,1.200000000121025892e+02,6.221669212039099804e-04
3.000001560439028481e+01,1.200000000122729631e+02,6.297123982848434106e-04
3.000001569461188922e+01,1.200000000124431381e+02,6.373108717274096396e-04
3.000001578483299980e+01,1.200000000126122188e+02,6.451125299034699391e-04
3.000001587505087741e+01,1.200000000127760700e+02,6.535029731626338430e-04
3.000001596526607628e+01,1.200000000129420812e+02,6.617363847916268469e-04
3.000001605548989403e+01,1.200000000131028628e+02,6.706300947637264557e-04
3.000001614571910835e+01,1.200000000132565106e+02,6.793998199431644904e-04
3.000001623595688116e+01,1.200000000134146774e+02,6.883416626950052911e-04
3.000001632620167413e+01,1.200000000135744926e+02,6.961241267113556057e-04
3.000001641644560735e+01,1.200000000137339100e+02,7.036739775955239921e-04
3.000001650667834951e+01,1.200000000138920910e+02,7.109947114712965397e-04
3.000001659691509914e+01,1.200000000140471030e+02,7.193552574845479787e-04
3.000001668715295366e+01,1.200000000141996139e+02,7.277009349043367424e-04
3.000001677739157202e+01,1.200000000143592587e+02,7.364240271779438777e-04
3.000001686763079789e+01,1.200000000145237209e+02,7.447189753004092349e-04
3.000001695786254885e+01,1.200000000146915795e+02,7.521976988387208546e-04
3.000001704809659131e+01,1.200000000148568517e+02,7.597690693616834801e-04
3.000001713832745054e+01,1.200000000150183865e+02,7.675285772833134517e-04
3.000001722856429254e+01,1.200000000151702721e+02,7.750918732403724778e-04
3.000001731879758182e+01,1.200000000153183777e+02,7.826652539673346724e-04
3.000001740904449221e+01,1.200000000154653179e+02,7.897051891273907526e-04
3.000001749930109085e+01,1.200000000156086486e+02,7.970260201429155969e-04
3.000001758956472742e+01,1.200000000157526898e+02,8.044015611234756448e-04
3.000001767982692868e+01,1.200000000158897109e+02,8.114460397131318271e-04
3.000001777008570159e+01,1.200000000160242308e+02,8.187194240952539023e-04
3.000001786034831852e+01,1.200000000161560934e+02,8.261522761522844443e-04
3.000001795061840326e+01,1.200000000162883964e+02,8.334122349316518867e-04
3.000001804089368918e+01,1.200000000164255454e+02,8.407513571147430921e-04
3.000001813116318772e+01,1.200000000165631775e+02,8.480871438239572738e-04
3.000001822143492447e+01,1.200000000167021739e+02,8.542768249005533053e-04
3.000001831171219280e+01,1.200000000168429892e+02,8.610412663698284279e-04
3.000001840198332204e+01,1.200000000169898016e+02,8.682479611723100885e-04
3.000001849225025552e+01,1.200000000171370544e+02,8.752650400021940108e-04
3.000001858251206954e+01,1.200000000172937575e+02,8.839486163412919829e-04
3.000001867277482503e+01,1.200000000174502759e+02,8.916305268718257085e-04
3.000001876304341764e+01,1.200000000176118675e+02,8.990825110565025050e-04
3.000001885331311513e+01,1.200000000177695938e+02,9.069678546418030252e-04
3.000001894357888332e+01,1.200000000179386461e+02,9.152983643183249017e-04
3.000001903384517021e+01,1.200000000181038331e+02,9.224240137106034295e-04
3.000001912410714766e+01,1.200000000182717201e+02,9.306931193089736315e-04
3.000001921437571895e+01,1.200000000184435720e+02,9.390437756960046903e-04
3.000001930465042577e+01,1.200000000186225009e+02,9.473191654536762193e-04
3.000001939492916136e+01,1.200000000187952338e+02,9.555911701226773311e-04
3.000001948520949568e+01,1.200000000189680236e+02,9.646191399682086829e-04
3.000001957548621334e+01,1.200000000191418934e+02,9.734917175415708050e-04
3.000001966576127899e+01,1.200000000193149674e+02,9.815620301596051245e-04
3.000001975603590409e+01,1.200000000194827265e+02,9.900564565920324210e-04
3.000001984631424179e+01,1.200000000196525889e+02,9.995288498482945636e-04
3.000001993659589772e+01,1.200000000198193533e+02,1.009112401245764205e-03
3.000002002686739999e+01,1.200000000199845118e+02,1.018505754329279873e-03
3.000002011713882411e+01,1.200000000201471835e+02,1.027471983783709948e-03
3.000002020741525044e+01,1.200000000203045971e+02,1.035721977705577170e-03
3.000002029768924316e+01,1.200000000204594102e+02,1.043893179660335818e-03
3.000002038796142045e+01,1.200000000205974118e+02,1.050978655913393416e-03
3.000002047823414486e+01,1.200000000207338928e+02,1.058145665859883426e-03
3.000002056851432997e+01,1.200000000208752482e+02,1.064458789422646073e-03
3.000002065879042235e+01,1.200000000210223590e+02,1.070756035595323745e-03
3.000002074906773331e+01,1.200000000211696118e+02,1.077829002715046053e-03
3.000002083934754182e+01,1.200000000213197637e+02,1.085089249635951686e-03
3.000002092962869327e+01,1.200000000214695461e+02,1.092269844573298546e-03
3.000002101990789072e+01,1.200000000216167990e+02,1.099244239363057892e-03
3.000002111019490769e+01,1.200000000217676330e+02,1.106481937725884877e-03
3.000002120047513543e+01,1.200000000219154686e+02,1.114225646214427826e-03
3.000002129075523882e+01,1.200000000220618972e+02,1.122224080975250384e-03
3.000002138103641514e+01,1.200000000222075585e+02,1.130275484080283483e-03
3.000002147131808172e+01,1.200000000223505339e+02,1.138566504039046105e-03
3.000002156160588740e+01,1.200000000224934098e+02,1.147425904482514587e-03
3.000002165188523762e+01,1.200000000226434054e+02,1.156007150947627789e-03
3.000002174215970641e+01,1.200000000227980053e+02,1.165024275438456512e-03
3.000002183243262621e+01,1.200000000229536283e+02,1.173521804582024122e-03
3.000002192269633383e+01,1.200000000231083703e+02,1.181237489544869398e-03
3.000002201295335880e+01,1.200000000232613928e+02,1.189332824674276543e-03
3.000002210321468255e+01,1.200000000234198154e+02,1.196636465956593676e-03
3.000002219347762278e+01,1.200000000235779822e+02,1.203689523233827550e-03
3.000002228374577129e+01,1.200000000237464661e+02,1.211561599642445612e-03
3.000002237401465166e+01,1.200000000239207623e+02,1.219762031273498868e-03
3.000002246428378072e+01,1.200000000240949021e+02,1.228013891444135761e-03
3.000002255455880018e+01,1.200000000242727936e+02,1.235664018002191784e-03
3.000002264483000403e+01,1.200000000244524330e+02,1.243929117166735687e-03
3.000002273510525796e+01,1.200000000246403147e+02,1.252482503132712000e-03
3.000002282538128284e+01,1.200000000248284238e+02,1.262461814003224513e-03
3.000002291565141732e+01,1.200000000250183376e+02,1.272184303279118821e-03
3.000002300591772197e+01,1.200000000251994692e+02,1.282173021234324362e-03
3.000002309619101482e+01,1.200000000253781423e+02,1.291585327042593786e-03
3.000002318645955413e+01,1.200000000255555506e+02,1.301854925986607346e-03
3.000002327673237801e+01,1.200000000257365258e+02,1.312606386208925533e-03
3.000002336700113048e+01,1.200000000259192916e+02,1.323058767080838955e-03
3.000002345727138575e+01,1.200000000261123461e+02,1.333134208946533178e-03
3.000002354753482336e+01,1.200000000263133018e+02,1.342773114732822215e-03
3.000002363779694647e+01,1.200000000265125379e+02,1.352097930834587599e-03
3.000002372806757833e+01,1.200000000267108220e+02,1.361621958971047895e-03
3.000002381833991905e+01,1.200000000269048428e+02,1.371169425176669687e-03
