pos_lat (deg),pos_lon (deg),pos_alt (m)
3.019999999999999929e+01,1.199999999999999858e+02,0.000000000000000000e+00
3.020000018041451995e+01,1.199999999999999858e+02,0.000000000000000000e+00
3.020000036082712569e+01,1.200000000000023022e+02,-6.798279586370417512e-07
3.020000054124565025e+01,1.200000000000109281e+02,-1.504873143164835438e-06
3.020000072166404337e+01,1.200000000000192557e+02,-2.553153511501731913e-06
3.020000090209034838e+01,1.200000000000320739e+02,-3.359937997001522425e-06
3.020000108251262816e+01,1.200000000000397904e+02,-5.992815534101090262e-06
3.020000126292935860e+01,1.200000000000406999e+02,-8.938470606579323468e-06
3.020000144334720105e+01,1.200000000000553086e+02,-1.166083196093771642e-05
3.020000162375558261e+01,1.200000000000671605e+02,-1.483640660201220995e-05
3.020000180416128188e+01,1.200000000000820961e+02,-1.835402926701669112e-05
3.020000198456331830e+01,1.200000000000943885e+02,-2.194036588104102714e-05
3.020000216495909839e+01,1.200000000001058709e+02,-2.609648329027297679e-05
3.020000234535194750e+01,1.200000000001172680e+02,-2.968617912749094690e-05
3.020000252574696020e+01,1.200000000001288640e+02,-3.309465579055186573e-05
3.020000270614653459e+01,1.200000000001453344e+02,-3.674990456989726139e-05
3.020000288654385656e+01,1.200000000001616201e+02,-4.140743867733916276e-05
3.020000306694907621e+01,1.200000000001718377e+02,-4.545724450415283396e-05
3.020000324735712383e+01,1.200000000001861196e+02,-5.018992883337942864e-05
3.020000342776990720e+01,1.200000000001989662e+02,-5.423410786691990071e-05
3.020000360818232465e+01,1.200000000002055884e+02,-5.791466504615059072e-05
3.020000378859498724e+01,1.200000000002089706e+02,-6.187865734657626638e-05
3.020000396900840300e+01,1.200000000002078480e+02,-6.587022940702571552e-05
3.020000414942541056e+01,1.200000000001968345e+02,-6.991083492512361285e-05
3.020000432984441119e+01,1.200000000001713545e+02,-7.397752793799441441e-05
3.020000451026069044e+01,1.200000000001439844e+02,-7.739668757739130614e-05
3.020000469067404580e+01,1.200000000001233502e+02,-8.082666852395750732e-05
3.020000487108591614e+01,1.200000000001099636e+02,-8.364775149076884484e-05
3.020000505149333847e+01,1.200000000000854357e+02,-8.617977229376225560e-05
3.020000523189417763e+01,1.200000000000619735e+02,-8.804105532504602374e-05
3.020000541229409308e+01,1.200000000000324860e+02,-8.974799218400698452e-05
3.020000559269699281e+01,1.199999999999923546e+02,-9.190411054049009789e-05
3.020000577310013412e+01,1.199999999999538574e+02,-9.363126124674858426e-05
3.020000595350207462e+01,1.199999999999171223e+02,-9.459832094003526746e-05
3.020000613390886102e+01,1.199999999998797193e+02,-9.508413488079078086e-05
3.020000631432074201e+01,1.199999999998353957e+02,-9.634532812489704490e-05
3.020000649473387000e+01,1.199999999997954490e+02,-9.845207034940769433e-05
3.020000667513966519e+01,1.199999999997507558e+02,-1.013021625953148028e-04
3.020000685554800413e+01,1.199999999997078390e+02,-1.031250914914734815e-04
3.020000703595098202e+01,1.199999999996610143e+02,-1.052366139646040988e-04
3.020000721635491558e+01,1.199999999996198454e+02,-1.080357199390333614e-04
3.020000739676487811e+01,1.199999999995730633e+02,-1.113101159013042636e-04
3.020000757717443207e+01,1.199999999995277733e+02,-1.143104957244214543e-04
3.020000775757959488e+01,1.199999999994848991e+02,-1.174817153589747837e-04
3.020000793798777039e+01,1.199999999994491162e+02,-1.205972945669928249e-04
3.020000811839650723e+01,1.199999999994102211e+02,-1.235645896878328771e-04
3.020000829879846549e+01,1.199999999993738271e+02,-1.265549082767938318e-04
3.020000847920221432e+01,1.199999999993375752e+02,-1.293504027094893177e-04
3.020000865960311032e+01,1.199999999992958379e+02,-1.316481830163468664e-04
3.020000884001050068e+01,1.199999999992565591e+02,-1.333698838194687184e-04
3.020000902042120572e+01,1.199999999992087254e+02,-1.348733717837773832e-04
3.020000920082739171e+01,1.199999999991614743e+02,-1.365948256511442425e-04
3.020000938123595446e+01,1.199999999991057962e+02,-1.385240223130578452e-04
3.020000956163781680e+01,1.199999999990485975e+02,-1.400550269585335364e-04
3.020000974204760524e+01,1.199999999989941699e+02,-1.422694225449821473e-04
3.020000992245764238e+01,1.199999999989383781e+02,-1.444629349911861051e-04
3.020001010286437193e+01,1.199999999988912265e+02,-1.468011453829749520e-04
3.020001028326275616e+01,1.199999999988469312e+02,-1.497929516356840643e-04
3.020001046365890218e+01,1.199999999988087040e+02,-1.531497537895147143e-04
3.020001064405230906e+01,1.199999999987619930e+02,-1.562715160404950664e-04
3.020001082443942764e+01,1.199999999987160209e+02,-1.601429171303029350e-04
3.020001100482829415e+01,1.199999999986803374e+02,-1.635056548291626422e-04
3.020001118521330596e+01,1.199999999986452792e+02,-1.658429325366107864e-04
3.020001136559274002e+01,1.199999999986062704e+02,-1.686592238689346333e-04
3.020001154598275406e+01,1.199999999985619183e+02,-1.715060110512337205e-04
3.020001172637473630e+01,1.199999999985156904e+02,-1.734695528421639906e-04
3.020001190676999769e+01,1.199999999984726884e+02,-1.752108969630688129e-04
3.020001208716163887e+01,1.199999999984328412e+02,-1.769321002529046711e-04
3.020001226755007195e+01,1.199999999983970440e+02,-1.786413419752884727e-04
3.020001244794069706e+01,1.199999999983594137e+02,-1.809160514027459248e-04
3.020001262832504807e+01,1.199999999983262882e+02,-1.833990018321158904e-04
3.020001280871534632e+01,1.199999999982899652e+02,-1.848982877868301643e-04
3.020001298909534526e+01,1.199999999982523207e+02,-1.866996136725635532e-04
3.020001316947129411e+01,1.199999999982158272e+02,-1.893291023952338014e-04
3.020001334984347707e+01,1.199999999981813943e+02,-1.919076787616335461e-04
3.020001353021556767e+01,1.199999999981492351e+02,-1.948383740213178712e-04
3.020001371058069140e+01,1.199999999981171470e+02,-1.979861267846820213e-04
3.020001389094778332e+01,1.199999999980839220e+02,-2.006550256535597301e-04
3.020001407131351456e+01,1.199999999980530561e+02,-2.021772474099263939e-04
3.020001425167002296e+01,1.199999999980167189e+02,-2.037549643330270068e-04
3.020001443202900759e+01,1.199999999979726510e+02,-2.055625672495492613e-04
3.020001461238597429e+01,1.199999999979402361e+02,-2.068466873812119862e-04
3.020001479274664646e+01,1.199999999979077927e+02,-2.079667822450890645e-04
3.020001497310708771e+01,1.199999999978834211e+02,-2.091380673732104879e-04
3.020001515346827858e+01,1.199999999978675902e+02,-2.105895765105881689e-04
3.020001533383020487e+01,1.199999999978467855e+02,-2.128112247175085775e-04
3.020001551418990715e+01,1.199999999978283398e+02,-2.147306622428698348e-04
3.020001569455432744e+01,1.199999999978035703e+02,-2.161640978581453329e-04
3.020001587491163164e+01,1.199999999977783887e+02,-2.176886491462685382e-04
3.020001605526932309e+01,1.199999999977580103e+02,-2.199262903783902594e-04
3.020001623562244930e+01,1.199999999977414404e+02,-2.221238340283803901e-04
3.020001641596986630e+01,1.199999999977293328e+02,-2.247036975556626257e-04
3.020001659631834556e+01,1.199999999977137293e+02,-2.273355891909968856e-04
3.020001677666785156e+01,1.199999999977006837e+02,-2.301786516551628187e-04
3.020001695701912325e+01,1.199999999976778327e+02,-2.332396766967363190e-04
3.020001713737114812e+01,1.199999999976525658e+02,-2.363044125111151436e-04
3.020001731772624964e+01,1.199999999976220266e+02,-2.407357672027724536e-04
3.020001749808150038e+01,1.199999999975984935e+02,-2.451082898003202550e-04
3.020001767843750429e+01,1.199999999975722034e+02,-2.490726279732074274e-04
3.020001785878629263e+01,1.199999999975397174e+02,-2.535571339224730581e-04
3.020001803914015426e+01,1.199999999975061087e+02,-2.580142587336189887e-04
3.020001821949457010e+01,1.199999999974700700e+02,-2.622935416280797118e-04
3.020001839985033953e+01,1.199999999974345570e+02,-2.663209073410477933e-04
3.020001858021086605e+01,1.199999999973926492e+02,-2.699709110158535403e-04
3.020001876058017487e+01,1.199999999973479703e+02,-2.741673538495187161e-04
3.020001894095626227e+01,1.199999999973070857e+02,-2.777774644246461407e-04
3.020001912133016120e+01,1.199999999972655473e+02,-2.821211080928159799e-04
3.020001930171119753e+01,1.199999999972379783e+02,-2.873617474119011164e-04
3.020001948209788978e+01,1.199999999972156530e+02,-2.925973746541346110e-04
3.020001966249813208e+01,1.199999999971896045e+02,-2.975325448995449020e-04
3.020001984289958230e+01,1.199999999971742284e+02,-3.024473944060308513e-04
3.020002002330523538e+01,1.199999999971589091e+02,-3.060252177827954578e-04
3.020002020371207152e+01,1.199999999971335001e+02,-3.095268382901857117e-04
3.020002038412097178e+01,1.199999999971086595e+02,-3.130091252299395345e-04
3.020002056453842698e+01,1.199999999970893754e+02,-3.163915340563880482e-04
3.020002074495792854e+01,1.199999999970816447e+02,-3.194091898135996703e-04
3.020002092538092953e+01,1.199999999970794278e+02,-3.214754189831604434e-04
3.020002110580842825e+01,1.199999999970837479e+02,-3.235310248265093952e-04
3.020002128623950099e+01,1.199999999970822984e+02,-3.261502441662587578e-04
3.020002146667373566e+01,1.199999999970827389e+02,-3.283939845491128757e-04
3.020002164710212256e+01,1.199999999970824263e+02,-3.301772026801900886e-04
3.020002182753688658e+01,1.199999999970771114e+02,-3.318520109844087969e-04
3.020002200796934133e+01,1.199999999970677464e+02,-3.336208683460449380e-04
3.020002218839982078e+01,1.199999999970578273e+02,-3.358663929276032006e-04
3.020002236883347635e+01,1.199999999970422806e+02,-3.380801862281382591e-04
3.020002254926736285e+01,1.199999999970245881e+02,-3.401129556070491109e-04
3.020002272969941615e+01,1.199999999970043660e+02,-3.422841636320180826e-04
3.020002291013434359e+01,1.199999999969987385e+02,-3.448534012361725420e-04
3.020002309056737033e+01,1.199999999969950295e+02,-3.469526283599713495e-04
3.020002327100012351e+01,1.199999999969912068e+02,-3.497141489307650114e-04
3.020002345143440792e+01,1.199999999969972890e+02,-3.529738338946696486e-04
3.020002363186873140e+01,1.199999999970012681e+02,-3.561023041799342382e-04
3.020002381229988586e+01,1.199999999969909794e+02,-3.595956376075151143e-04
3.020002399272997451e+01,1.199999999969836608e+02,-3.629578809992589660e-04
3.020002417316219123e+01,1.199999999969695352e+02,-3.668456230636996216e-04
3.020002435359952386e+01,1.199999999969688957e+02,-3.711278693432763613e-04
3.020002453403678899e+01,1.199999999969632967e+02,-3.753212446726297792e-04
3.020002471447631009e+01,1.199999999969475510e+02,-3.791379742371575124e-04
3.020002489491852771e+01,1.199999999969389251e+02,-3.827388575432237486e-04
3.020002507535908620e+01,1.199999999969247568e+02,-3.865233446911137041e-04
3.020002525580364861e+01,1.199999999969108870e+02,-3.898889742501543648e-04
3.020002543624318392e+01,1.199999999968984383e+02,-3.926057750232992533e-04
3.020002561668669827e+01,1.199999999968890307e+02,-3.950249784906945615e-04
3.020002579713812096e+01,1.199999999968878370e+02,-3.968802844962564225e-04
3.020002597759292229e+01,1.199999999968879649e+02,-3.982619623855457270e-04
3.020002615804298074e+01,1.199999999968939193e+02,-4.003058516320232539e-04
3.020002633848661233e+01,1.199999999968983673e+02,-4.024948873946234806e-04
3.020002651892666634e+01,1.199999999968996178e+02,-4.036403735035949463e-04
3.020002669936697259e+01,1.199999999969055864e+02,-4.055945661429049697e-04
3.020002687980885980e+01,1.199999999969151787e+02,-4.067228956473276655e-04
3.020002706025766059e+01,1.199999999969324307e+02,-4.070675818233994610e-04
3.020002724070593914e+01,1.199999999969464852e+02,-4.069813398337096197e-04
3.020002742115490690e+01,1.199999999969608098e+02,-4.072212853380057559e-04
3.020002760159893640e+01,1.199999999969719511e+02,-4.075289013203002879e-04
3.020002778204922222e+01,1.199999999969863467e+02,-4.086057838197680787e-04
3.020002796249480426e+01,1.199999999969994491e+02,-4.092657054864472753e-04
3.020002814294016602e+01,1.199999999970075208e+02,-4.094545528561714469e-04
3.020002832338640886e+01,1.199999999970154647e+02,-4.098442483321323927e-04
3.020002850382785198e+01,1.199999999970222575e+02,-4.108171742579459708e-04
3.020002868427335940e+01,1.199999999970210638e+02,-4.125340716352261165e-04
3.020002886472014225e+01,1.199999999970114857e+02,-4.138419204485982786e-04
3.020002904516475084e+01,1.199999999970058155e+02,-4.151268495986886386e-04
3.020002922561342018e+01,1.199999999969889757e+02,-4.161437985511253477e-04
3.020002940606301678e+01,1.199999999969718800e+02,-4.166572540013798983e-04
3.020002958651201652e+01,1.199999999969571718e+02,-4.166549702010253933e-04
3.020002976695552377e+01,1.199999999969404456e+02,-4.164755200426198877e-04
3.020002994740345059e+01,1.199999999969244016e+02,-4.152665485887857446e-04
3.020003012785152663e+01,1.199999999969129192e+02,-4.148178308486797283e-04
3.020003030830063295e+01,1.199999999968948572e+02,-4.143908262257854831e-04
3.020003048874260898e+01,1.199999999968706277e+02,-4.142179070038280362e-04
3.020003066919098345e+01,1.199999999968461992e+02,-4.143615569289974660e-04
3.020003084963636297e+01,1.199999999968197102e+02,-4.147323756975013881e-04
3.020003103007049816e+01,1.199999999967985218e+02,-4.149042577158926909e-04
3.020003121050470085e+01,1.199999999967795645e+02,-4.163570702443354795e-04
3.020003139093990896e+01,1.199999999967556761e+02,-4.178245814734709521e-04
3.020003157137650973e+01,1.199999999967378130e+02,-4.195913576503585763e-04
3.020003175181044952e+01,1.199999999967163404e+02,-4.209410296871838437e-04
3.020003193224590632e+01,1.199999999966963173e+02,-4.222163927029773389e-04
3.020003211267392729e+01,1.199999999966723152e+02,-4.231994703871433785e-04
3.020003229309570614e+01,1.199999999966433109e+02,-4.248073187618533661e-04
3.020003247350617670e+01,1.199999999966145339e+02,-4.261329630144599159e-04
3.020003265391326153e+01,1.199999999965845632e+02,-4.282798644364677705e-04
3.020003283432633268e+01,1.199999999965567952e+02,-4.310596860448575544e-04
3.020003301474361024e+01,1.199999999965340294e+02,-4.333560759085241252e-04
3.020003319514652773e+01,1.199999999965038171e+02,-4.360244445815481961e-04
3.020003337554999945e+01,1.199999999964638988e+02,-4.389302301108203457e-04
3.020003355596135464e+01,1.199999999964229573e+02,-4.412435495615759512e-04
3.020003373637914379e+01,1.199999999963800548e+02,-4.436002051978524654e-04
3.020003391680104698e+01,1.199999999963331732e+02,-4.458912963948241746e-04
3.020003409722849241e+01,1.199999999962908248e+02,-4.476057255206303438e-04
3.020003427765779236e+01,1.199999999962556387e+02,-4.497660529110578489e-04
3.020003445808675835e+01,1.199999999962203958e+02,-4.512887183569103534e-04
3.020003463850710190e+01,1.199999999961870856e+02,-4.531523727229185700e-04
3.020003481893362007e+01,1.199999999961462294e+02,-4.550210122115909027e-04
3.020003499936384728e+01,1.199999999960993904e+02,-4.570544193960191393e-04
3.020003517979635888e+01,1.199999999960577526e+02,-4.589514121784408780e-04
3.020003536023424573e+01,1.199999999960192127e+02,-4.610079704783370553e-04
3.020003554066907014e+01,1.199999999959859593e+02,-4.633926839665919927e-04
3.020003572110556433e+01,1.199999999959514980e+02,-4.651900762426278623e-04
3.020003590154560413e+01,1.199999999959168662e+02,-4.673558692340651789e-04
3.020003608199510836e+01,1.199999999958735373e+02,-4.693210429027819958e-04
3.020003626244777095e+01,1.199999999958306205e+02,-4.710979089525994595e-04
3.020003644290044065e+01,1.199999999957700823e+02,-4.734784854636334812e-04
3.020003662334737626e+01,1.199999999956984311e+02,-4.758814139816623114e-04
3.020003680379248934e+01,1.199999999956325780e+02,-4.782163412813293722e-04
3.020003698424346084e+01,1.199999999955579000e+02,-4.798501851963446235e-04
3.020003716469179267e+01,1.199999999954849841e+02,-4.820974540250857728e-04
3.020003734514204297e+01,1.199999999954082313e+02,-4.838296944232191418e-04
3.020003752559539123e+01,1.199999999953219003e+02,-4.840505728945840693e-04
3.020003770604572679e+01,1.199999999952307945e+02,-4.845465914084130517e-04
3.020003788650387477e+01,1.199999999951410956e+02,-4.848529837162321963e-04
3.020003806696143300e+01,1.199999999950479435e+02,-4.852793271452425635e-04
3.020003824742119036e+01,1.199999999949461653e+02,-4.858809809989686934e-04
3.020003842788637627e+01,1.199999999948378218e+02,-4.869770835866638319e-04
3.020003860834680864e+01,1.199999999947341109e+02,-4.873917112319017114e-04
3.020003878880907422e+01,1.199999999946304285e+02,-4.873576227295443116e-04
3.020003896926905540e+01,1.199999999945228950e+02,-4.874035411985978405e-04
3.020003914972576098e+01,1.199999999944271707e+02,-4.874488251827198155e-04
3.020003933018798037e+01,1.199999999943269557e+02,-4.876010029364154295e-04
3.020003951065421788e+01,1.199999999942302367e+02,-4.880971691113915561e-04
3.020003969112134357e+01,1.199999999941263411e+02,-4.880362155679838880e-04
3.020003987158487391e+01,1.199999999940117732e+02,-4.884012386814068482e-04
3.020004005204437902e+01,1.199999999939040123e+02,-4.892639072877159661e-04
3.020004023251559389e+01,1.199999999937954698e+02,-4.906914987522277994e-04
3.020004041298439290e+01,1.199999999936893857e+02,-4.920318942898027799e-04
3.020004059345262704e+01,1.199999999935890429e+02,-4.928933590639764670e-04
3.020004077391982023e+01,1.199999999934884727e+02,-4.929785976692857346e-04
3.020004095439519176e+01,1.199999999933917394e+02,-4.931463822680279665e-04
3.020004113486810127e+01,1.199999999932942814e+02,-4.933550523682786676e-04
3.020004131533558578e+01,1.199999999931970081e+02,-4.937562937270272186e-04
3.020004149580683617e+01,1.199999999930933541e+02,-4.934605268720681451e-04
3.020004167627861946e+01,1.199999999929980419e+02,-4.937965834098341283e-04
3.020004185676188513e+01,1.199999999928948142e+02,-4.943757417915988720e-04
3.020004203726130498e+01,1.199999999927932635e+02,-4.950386666179706213e-04
3.020004221775973008e+01,1.199999999926877621e+02,-4.959242049737227999e-04
3.020004239825808412e+01,1.199999999925836960e+02,-4.974405294014340754e-04
3.020004257876744802e+01,1.199999999924848026e+02,-4.991984791743925070e-04
3.020004275927919224e+01,1.199999999923842893e+02,-5.004614235969655602e-04
3.020004293980018772e+01,1.199999999922730751e+02,-5.019836526217358492e-04
3.020004312032317983e+01,1.199999999921601557e+02,-5.035623207777711408e-04
3.020004330084450928e+01,1.199999999920452751e+02,-5.049660423937747189e-04
3.020004348136644623e+01,1.199999999919370310e+02,-5.076950825809469197e-04
3.020004366189337475e+01,1.199999999918304212e+02,-5.107034633352789364e-04
3.020004384241752149e+01,1.199999999917210118e+02,-5.138587594029651656e-04
3.020004402294588886e+01,1.199999999916008591e+02,-5.175358190000812521e-04
3.020004420348017860e+01,1.199999999914914497e+02,-5.216441405710023566e-04
3.020004438401244329e+01,1.199999999913844562e+02,-5.253790994214957476e-04
3.020004456453932207e+01,1.199999999912706130e+02,-5.288086436541132671e-04
3.020004474505805803e+01,1.199999999911507018e+02,-5.324242331125768595e-04
3.020004492557631437e+01,1.199999999910255042e+02,-5.364733435698264361e-04
3.020004510609262738e+01,1.199999999909039303e+02,-5.401796742330242356e-04
3.020004528661037924e+01,1.199999999907787185e+02,-5.450577830177718739e-04
3.020004546712889137e+01,1.199999999906522419e+02,-5.510600238169978795e-04
3.020004564765962840e+01,1.199999999905276695e+02,-5.580163364451063042e-04
3.020004582817747618e+01,1.199999999904018608e+02,-5.634480189461222623e-04
3.020004600869253508e+01,1.199999999902765211e+02,-5.686259764575512209e-04
3.020004618921185013e+01,1.199999999901527872e+02,-5.744716242252585151e-04
3.020004636973695966e+01,1.199999999900249605e+02,-5.796269779307086038e-04
3.020004655025904583e+01,1.199999999898973755e+02,-5.844370107919946190e-04
3.020004673078948088e+01,1.199999999897675877e+02,-5.891332809857674621e-04
3.020004691132108476e+01,1.199999999896375158e+02,-5.945228867843769388e-04
3.020004709185202785e+01,1.199999999895118208e+02,-5.992074741394757664e-04
