pos_lat (deg),pos_lon (deg),pos_alt (m)
2.980000000000000426e+01,1.199999999999999858e+02,0.000000000000000000e+00
2.980000018042549925e+01,1.199999999999999858e+02,0.000000000000000000e+00
2.980000036085121451e+01,1.200000000000048033e+02,1.103346943626534831e-06
2.980000054127966180e+01,1.200000000000164846e+02,1.690164081746941574e-06
2.980000072170918912e+01,1.200000000000260485e+02,2.478900735398051184e-06
2.980000090213155417e+01,1.200000000000393214e+02,2.486115598883660184e-06
2.980000108255214997e+01,1.200000000000567582e+02,2.009656916986764578e-06
2.980000126297498753e+01,1.200000000000774492e+02,8.108236178188878907e-07
2.980000144339946999e+01,1.200000000000993481e+02,-8.518216860198493057e-07
2.980000162381649886e+01,1.200000000001242171e+02,-3.001156599187995534e-06
2.980000180422891987e+01,1.200000000001448939e+02,-4.475251522817008452e-06
2.980000198463843475e+01,1.200000000001723066e+02,-6.529099582288744484e-06
2.980000216504940624e+01,1.200000000002057163e+02,-9.509130249143317207e-06
2.980000234545880744e+01,1.200000000002357581e+02,-1.297978488829385525e-05
2.980000252587001697e+01,1.200000000002658140e+02,-1.599692333952885281e-05
2.980000270628451986e+01,1.200000000002935963e+02,-1.878096740690388578e-05
2.980000288669720732e+01,1.200000000003213074e+02,-2.210786522782862002e-05
2.980000306710799052e+01,1.200000000003525713e+02,-2.543733892955872880e-05
2.980000324751215501e+01,1.200000000003894911e+02,-2.887616079081865400e-05
2.980000342791158019e+01,1.200000000004224461e+02,-3.122112241006649012e-05
2.980000360831646589e+01,1.200000000004569500e+02,-3.396350295703651282e-05
2.980000378871745781e+01,1.200000000004886260e+02,-3.635104064578365934e-05
2.980000396912335248e+01,1.200000000005191652e+02,-3.869058389062371439e-05
2.980000414952629839e+01,1.200000000005536123e+02,-4.127833959591811823e-05
2.980000432993109882e+01,1.200000000005936300e+02,-4.314282020364147691e-05
2.980000451032784881e+01,1.200000000006336904e+02,-4.395849858188316485e-05
2.980000469072043146e+01,1.200000000006757119e+02,-4.563887429894833550e-05
2.980000487110712371e+01,1.200000000007093774e+02,-4.817096468895999570e-05
2.980000505149870094e+01,1.200000000007402718e+02,-5.096063851517666532e-05
2.980000523188929762e+01,1.200000000007693046e+02,-5.415278473593082434e-05
2.980000541227703792e+01,1.200000000007983090e+02,-5.772527796683267758e-05
2.980000559265537063e+01,1.200000000008272849e+02,-6.115749292230512977e-05
2.980000577304053166e+01,1.200000000008630394e+02,-6.480285858611258714e-05
2.980000595343082281e+01,1.200000000008994760e+02,-6.846321857214386218e-05
2.980000613382003394e+01,1.200000000009353727e+02,-7.335906441850285366e-05
2.980000631421031443e+01,1.200000000009612506e+02,-7.845410929952523226e-05
2.980000649459667983e+01,1.200000000009909513e+02,-8.371005471736321874e-05
2.980000667498346800e+01,1.200000000010247874e+02,-8.894151891500288727e-05
2.980000685536619542e+01,1.200000000010545165e+02,-9.428282837440901470e-05
2.980000703574780019e+01,1.200000000010767280e+02,-1.003234994992966962e-04
2.980000721612717740e+01,1.200000000010924452e+02,-1.066040183027379851e-04
2.980000739650204267e+01,1.200000000010983996e+02,-1.131507706906733881e-04
2.980000757687345470e+01,1.200000000011122410e+02,-1.194785326119103422e-04
2.980000775724821338e+01,1.200000000011289103e+02,-1.256879371175969326e-04
2.980000793762734190e+01,1.200000000011473844e+02,-1.317450558503367860e-04
2.980000811800080740e+01,1.200000000011694397e+02,-1.380232892525101848e-04
2.980000829837265997e+01,1.200000000011830537e+02,-1.440661076557743091e-04
2.980000847874720904e+01,1.200000000011943229e+02,-1.501090397464509719e-04
2.980000865911930674e+01,1.200000000012121149e+02,-1.559284016104969220e-04
2.980000883949306001e+01,1.200000000012279600e+02,-1.628115453048093744e-04
2.980000901986473494e+01,1.200000000012410482e+02,-1.701068112315709871e-04
2.980000920023942257e+01,1.200000000012554153e+02,-1.767421064060511213e-04
2.980000938061530036e+01,1.200000000012709194e+02,-1.832791519921996199e-04
2.980000956099145171e+01,1.200000000012818333e+02,-1.897617867058561277e-04
2.980000974137016101e+01,1.200000000012969394e+02,-1.964653112375219443e-04
2.980000992174444718e+01,1.200000000013157262e+02,-2.021721270093283763e-04
2.980001010212191659e+01,1.200000000013325376e+02,-2.082734454094965337e-04
2.980001028249844808e+01,1.200000000013553887e+02,-2.149239982185723377e-04
2.980001046287970112e+01,1.200000000013811672e+02,-2.208445086096087631e-04
2.980001064326180682e+01,1.200000000014109673e+02,-2.272719510716372977e-04
2.980001082363858345e+01,1.200000000014360495e+02,-2.339764780366266109e-04
2.980001100401765513e+01,1.200000000014589006e+02,-2.399635179959916332e-04
2.980001118439306040e+01,1.200000000014790800e+02,-2.454422343537074054e-04
2.980001136476879964e+01,1.200000000014968151e+02,-2.506637263970312658e-04
2.980001154514485506e+01,1.200000000015136834e+02,-2.557864142654244616e-04
2.980001172552323396e+01,1.200000000015347013e+02,-2.614312065124337926e-04
2.980001190590736826e+01,1.200000000015580355e+02,-2.679472357427454621e-04
2.980001208628905474e+01,1.200000000015807302e+02,-2.740798281753776579e-04
2.980001226667291547e+01,1.200000000016019470e+02,-2.802136701506655059e-04
2.980001244705377772e+01,1.200000000016187158e+02,-2.862245959980669959e-04
2.980001262743344981e+01,1.200000000016318182e+02,-2.931623835993377018e-04
2.980001280780642503e+01,1.200000000016419222e+02,-2.996308356609531445e-04
2.980001298818184097e+01,1.200000000016569288e+02,-3.060969842472431200e-04
2.980001316856215610e+01,1.200000000016679991e+02,-3.125238834617395179e-04
2.980001334893565712e+01,1.200000000016828068e+02,-3.181933883867219068e-04
2.980001352931652647e+01,1.200000000017097364e+02,-3.242477039801082580e-04
2.980001370969875296e+01,1.200000000017372344e+02,-3.297023426648796208e-04
2.980001389007984258e+01,1.200000000017604691e+02,-3.347062341616689946e-04
2.980001407045802964e+01,1.200000000017895303e+02,-3.395562787724057939e-04
2.980001425083345978e+01,1.200000000018259669e+02,-3.438156789481744565e-04
2.980001443120388060e+01,1.200000000018554260e+02,-3.477386686529016532e-04
2.980001461158230924e+01,1.200000000018880968e+02,-3.509011813500897644e-04
2.980001479196529957e+01,1.200000000019161916e+02,-3.542240273388602223e-04
2.980001497234749408e+01,1.200000000019511219e+02,-3.579874462289177892e-04
2.980001515273525570e+01,1.200000000019856969e+02,-3.612570496533467831e-04
2.980001533312409023e+01,1.200000000020175008e+02,-3.643024964547493224e-04
2.980001551351339728e+01,1.200000000020481394e+02,-3.673299864725792477e-04
2.980001569390144311e+01,1.200000000020705073e+02,-3.705145540518436941e-04
2.980001587429471854e+01,1.200000000020954189e+02,-3.744472765143307754e-04
2.980001605469363568e+01,1.200000000021216522e+02,-3.780943550966419124e-04
2.980001623509379272e+01,1.200000000021516513e+02,-3.811683611286055149e-04
2.980001641549184654e+01,1.200000000021764777e+02,-3.843594976954622325e-04
2.980001659590412899e+01,1.200000000021984903e+02,-3.878362328818785675e-04
2.980001677631468837e+01,1.200000000022158133e+02,-3.920506543964457388e-04
2.980001695673145434e+01,1.200000000022368170e+02,-3.953167146247748773e-04
2.980001713714970535e+01,1.200000000022563569e+02,-3.992944502710344496e-04
2.980001731756612315e+01,1.200000000022709514e+02,-4.027740395662777204e-04
2.980001749798580946e+01,1.200000000022824054e+02,-4.061844138885269389e-04
2.980001767840471771e+01,1.200000000023025564e+02,-4.100551950114857363e-04
2.980001785883001020e+01,1.200000000023188420e+02,-4.149282152892718248e-04
2.980001803925855342e+01,1.200000000023314186e+02,-4.197302200714398530e-04
2.980001821968660991e+01,1.200000000023446205e+02,-4.246320609933663731e-04
2.980001840011130199e+01,1.200000000023560460e+02,-4.295007859094081130e-04
2.980001858053097052e+01,1.200000000023650557e+02,-4.345604510576187322e-04
2.980001876095104407e+01,1.200000000023729143e+02,-4.401657202981631946e-04
2.980001894136460550e+01,1.200000000023835725e+02,-4.451443922733871864e-04
2.980001912177553436e+01,1.200000000023981102e+02,-4.505988691327437730e-04
2.980001930219627582e+01,1.200000000024149216e+02,-4.569761541306376117e-04
2.980001948261566014e+01,1.200000000024381563e+02,-4.634606036636076108e-04
2.980001966303833427e+01,1.200000000024577247e+02,-4.703725850923655503e-04
2.980001984347056165e+01,1.200000000024796805e+02,-4.770983124134011572e-04
2.980002002390810745e+01,1.200000000025026026e+02,-4.838784788650117488e-04
2.980002020434371701e+01,1.200000000025198830e+02,-4.902801558542408105e-04
2.980002038477961790e+01,1.200000000025423503e+02,-4.968309275536660075e-04
2.980002056521210463e+01,1.200000000025650166e+02,-5.027543489483596870e-04
2.980002074565301839e+01,1.200000000025891183e+02,-5.088143874519725348e-04
2.980002092609720776e+01,1.200000000026065123e+02,-5.144112983571283828e-04
2.980002110653323655e+01,1.200000000026337261e+02,-5.205114605202399748e-04
2.980002128697074681e+01,1.200000000026656579e+02,-5.263853398401337723e-04
2.980002146741235336e+01,1.200000000027001761e+02,-5.330158345037572937e-04
2.980002164785536678e+01,1.200000000027364848e+02,-5.395766258266877259e-04
2.980002182830524404e+01,1.200000000027793874e+02,-5.455161774033373675e-04
2.980002200875262730e+01,1.200000000028222900e+02,-5.513337823709101243e-04
2.980002218920468593e+01,1.200000000028626204e+02,-5.566412351250359493e-04
2.980002236965592388e+01,1.200000000029014728e+02,-5.621885973920819068e-04
2.980002255010603562e+01,1.200000000029514382e+02,-5.687152735846820548e-04
2.980002273055265505e+01,1.200000000030075427e+02,-5.754323200267506128e-04
2.980002291099397027e+01,1.200000000030651250e+02,-5.813397684623736487e-04
2.980002309143354111e+01,1.200000000031216700e+02,-5.878445552065572881e-04
2.980002327187793654e+01,1.200000000031841552e+02,-5.931701691261057671e-04
2.980002345233036465e+01,1.200000000032585632e+02,-5.995357545176274120e-04
2.980002363279046662e+01,1.200000000033308254e+02,-6.065280016205441436e-04
2.980002381325469685e+01,1.200000000034100083e+02,-6.146175854814792984e-04
2.980002399371936050e+01,1.200000000034869174e+02,-6.223249565828228814e-04
2.980002417419034444e+01,1.200000000035623344e+02,-6.291601518569104289e-04
2.980002435465504362e+01,1.200000000036413468e+02,-6.351624213185863435e-04
2.980002453511621141e+01,1.200000000037242955e+02,-6.415890230542855037e-04
2.980002471558658783e+01,1.200000000038130423e+02,-6.482095593443663569e-04
2.980002489606293281e+01,1.200000000038947405e+02,-6.544208449868634241e-04
2.980002507654045019e+01,1.200000000039821515e+02,-6.610022234495992622e-04
2.980002525701862837e+01,1.200000000040656261e+02,-6.664171806397527079e-04
2.980002543749728972e+01,1.200000000041419952e+02,-6.716604622863254614e-04
2.980002561798443494e+01,1.200000000042147548e+02,-6.768734100905657086e-04
2.980002579847491972e+01,1.200000000042950319e+02,-6.820466583951959559e-04
2.980002597896496752e+01,1.200000000043814765e+02,-6.868766657947946233e-04
2.980002615945755196e+01,1.200000000044578314e+02,-6.913701912770001687e-04
2.980002633994955374e+01,1.200000000045204729e+02,-6.956089984422451260e-04
2.980002652044131040e+01,1.200000000045863828e+02,-7.001494306301761115e-04
2.980002670092990869e+01,1.200000000046519943e+02,-7.042490216051843291e-04
2.980002688142005596e+01,1.200000000047200075e+02,-7.075254174120623523e-04
2.980002706190492034e+01,1.200000000047873669e+02,-7.107888695374301900e-04
2.980002724238212863e+01,1.200000000048588618e+02,-7.143887456771835657e-04
2.980002742286331596e+01,1.200000000049364672e+02,-7.186513339004741655e-04
2.980002760334876299e+01,1.200000000050207660e+02,-7.232391000336505036e-04
2.980002778383558493e+01,1.200000000050957283e+02,-7.279328292898563316e-04
2.980002796432215462e+01,1.200000000051702216e+02,-7.326214295700662904e-04
2.980002814480360485e+01,1.200000000052457381e+02,-7.375810891013991760e-04
2.980002832528766277e+01,1.200000000053152291e+02,-7.418085184063741939e-04
2.980002850576917695e+01,1.200000000053870366e+02,-7.459313721666563498e-04
2.980002868625113521e+01,1.200000000054619704e+02,-7.510965062450524225e-04
2.980002886672909668e+01,1.200000000055436971e+02,-7.563687962284429802e-04
2.980002904719984258e+01,1.200000000056276690e+02,-7.617869776708101684e-04
2.980002922766266948e+01,1.200000000057129341e+02,-7.666130705598182696e-04
2.980002940812503454e+01,1.200000000058024909e+02,-7.715925874284849592e-04
2.980002958858671036e+01,1.200000000058976326e+02,-7.762890524565542851e-04
2.980002976905035794e+01,1.200000000059893352e+02,-7.802942280279265719e-04
2.980002994952180018e+01,1.200000000060894507e+02,-7.844414720697858020e-04
2.980003012999735645e+01,1.200000000061897794e+02,-7.892965285183588383e-04
2.980003031047367656e+01,1.200000000062953518e+02,-7.945304404659220884e-04
2.980003049095207146e+01,1.200000000064019190e+02,-7.998828484461070146e-04
2.980003067143204021e+01,1.200000000065178938e+02,-8.059121727882537483e-04
2.980003085191809475e+01,1.200000000066329022e+02,-8.115226012490289308e-04
2.980003103240458273e+01,1.200000000067493886e+02,-8.170457503545783522e-04
2.980003121289713874e+01,1.200000000068556432e+02,-8.226911236572444523e-04
2.980003139339765994e+01,1.200000000069697847e+02,-8.276138820608877015e-04
2.980003157389772284e+01,1.200000000070984072e+02,-8.335037661244852278e-04
2.980003175440007013e+01,1.200000000072432584e+02,-8.398583135962465942e-04
2.980003193489897129e+01,1.200000000073845001e+02,-8.465698865363040356e-04
2.980003211539651176e+01,1.200000000075291524e+02,-8.532750764097512663e-04
2.980003229588647073e+01,1.200000000076675235e+02,-8.589079482763828811e-04
2.980003247637564812e+01,1.200000000077994002e+02,-8.647142384128999248e-04
2.980003265687412295e+01,1.200000000079331812e+02,-8.709460535146533672e-04
2.980003283737084985e+01,1.200000000080668201e+02,-8.766078693623174370e-04
2.980003301786402403e+01,1.200000000082071523e+02,-8.818456213893426749e-04
2.980003319835678255e+01,1.200000000083484935e+02,-8.864558309211692955e-04
2.980003337884800629e+01,1.200000000084912557e+02,-8.912405400866578627e-04
2.980003355933826370e+01,1.200000000086332648e+02,-8.974622931448077113e-04
2.980003373982810544e+01,1.200000000087824930e+02,-9.038060741776764249e-04
2.980003392032149279e+01,1.200000000089357144e+02,-9.097672903204793732e-04
2.980003410082411719e+01,1.200000000090891064e+02,-9.157504749453705814e-04
2.980003428132315690e+01,1.200000000092405656e+02,-9.219099721951021448e-04
2.980003446182548288e+01,1.200000000093989172e+02,-9.277437085459913808e-04
2.980003464231781862e+01,1.200000000095655253e+02,-9.332829962570637298e-04
2.980003482281749072e+01,1.200000000097375761e+02,-9.383345383293344296e-04
2.980003500332021460e+01,1.200000000099153823e+02,-9.432028989558945056e-04
2.980003518382661198e+01,1.200000000100908437e+02,-9.475178204564779728e-04
2.980003536433274292e+01,1.200000000102654241e+02,-9.514404596694523613e-04
2.980003554484450135e+01,1.200000000104342206e+02,-9.556143274076995056e-04
2.980003572536538670e+01,1.200000000105949027e+02,-9.599120082585839691e-04
2.980003590588952989e+01,1.200000000107557554e+02,-9.636559589140484281e-04
2.980003608641902346e+01,1.200000000109170060e+02,-9.670552765081606370e-04
2.980003626695142316e+01,1.200000000110800471e+02,-9.705602958029457003e-04
2.980003644749181646e+01,1.200000000112426903e+02,-9.736452078932917534e-04
2.980003662803073539e+01,1.200000000114024346e+02,-9.776792699003489934e-04
2.980003680857599235e+01,1.200000000115706769e+02,-9.804130189090163542e-04
2.980003698912242882e+01,1.200000000117392460e+02,-9.820769954584599327e-04
2.980003716967019045e+01,1.200000000119072183e+02,-9.838711730324296249e-04
2.980003735022263456e+01,1.200000000120772938e+02,-9.861631329348339008e-04
2.980003753078246476e+01,1.200000000122494725e+02,-9.888883985497579163e-04
2.980003771134352064e+01,1.200000000124266961e+02,-9.917200749560060001e-04
2.980003789190207542e+01,1.200000000126012765e+02,-9.948658886071203369e-04
2.980003807246526293e+01,1.200000000127796369e+02,-9.980028140476602302e-04
2.980003825302786424e+01,1.200000000129567042e+02,-9.996203533566908050e-04
2.980003843359200033e+01,1.200000000131328335e+02,-1.000969880474397375e-03
2.980003861415622879e+01,1.200000000133022695e+02,-1.002133742088712415e-03
2.980003879471665584e+01,1.200000000134834579e+02,-1.002372287901289035e-03
2.980003897527904400e+01,1.200000000136646463e+02,-1.002697884719103627e-03
2.980003915584926943e+01,1.200000000138450531e+02,-1.003379138763987053e-03
2.980003933643108383e+01,1.200000000140221630e+02,-1.003888116831509834e-03
2.980003951700625464e+01,1.200000000142096184e+02,-1.005566733514849176e-03
2.980003969758409710e+01,1.200000000143959227e+02,-1.007176453426349453e-03
2.980003987815888067e+01,1.200000000145828665e+02,-1.009610398942977806e-03
2.980004005872604367e+01,1.200000000147666697e+02,-1.012557496444485214e-03
2.980004023929040713e+01,1.200000000149562851e+02,-1.015616397660335868e-03
2.980004041985171881e+01,1.200000000151444652e+02,-1.019176344375786244e-03
2.980004060041538239e+01,1.200000000153292774e+02,-1.022537440017799552e-03
2.980004078098110298e+01,1.200000000155052646e+02,-1.026473902272813073e-03
2.980004096154692306e+01,1.200000000156893805e+02,-1.030904337916683806e-03
2.980004114211429567e+01,1.200000000158695315e+02,-1.034942334717870675e-03
2.980004132268164341e+01,1.200000000160486167e+02,-1.038719874154349831e-03
2.980004150325844847e+01,1.200000000162325193e+02,-1.043235505614562584e-03
2.980004168383835861e+01,1.200000000164073981e+02,-1.046894596218502557e-03
2.980004186442308622e+01,1.200000000165784400e+02,-1.051105742271884027e-03
2.980004204501627285e+01,1.200000000167568004e+02,-1.055068349062905468e-03
2.980004222560491556e+01,1.200000000169384577e+02,-1.059282184678041888e-03
2.980004240620170819e+01,1.200000000171308159e+02,-1.062527954530132846e-03
2.980004258680407503e+01,1.200000000173225345e+02,-1.065002931519538811e-03
2.980004276740363878e+01,1.200000000175180332e+02,-1.067325610360486373e-03
2.980004294801171127e+01,1.200000000177178947e+02,-1.069272650337481801e-03
2.980004312862440585e+01,1.200000000179224457e+02,-1.071752062715277667e-03
2.980004330924184686e+01,1.200000000181277073e+02,-1.074737221693143965e-03
2.980004348986468798e+01,1.200000000183376159e+02,-1.077503677519536622e-03
2.980004367049332004e+01,1.200000000185519866e+02,-1.078790898286398434e-03
2.980004385112810184e+01,1.200000000187711890e+02,-1.080432146388908251e-03
2.980004403176862127e+01,1.200000000189909599e+02,-1.081937412743415013e-03
2.980004421240847634e+01,1.200000000192140277e+02,-1.083266983369299448e-03
2.980004439304778074e+01,1.200000000194363139e+02,-1.084257807982982750e-03
2.980004457369406978e+01,1.200000000196566390e+02,-1.084640889174529142e-03
2.980004475434444799e+01,1.200000000198731129e+02,-1.084343974169523894e-03
2.980004493500533158e+01,1.200000000200873558e+02,-1.084572335372753667e-03
2.980004511566894720e+01,1.200000000202983870e+02,-1.084250641788581191e-03
2.980004529633163557e+01,1.200000000205094750e+02,-1.084729086151742846e-03
2.980004547699140716e+01,1.200000000207191420e+02,-1.084842021583789368e-03
2.980004565765115743e+01,1.200000000209262367e+02,-1.085611914960406266e-03
2.980004583831491871e+01,1.200000000211283435e+02,-1.085767451551112759e-03
2.980004601897061178e+01,1.200000000213345146e+02,-1.085662155142411113e-03
2.980004619962458889e+01,1.200000000215480895e+02,-1.086279193111034649e-03
2.980004638028009722e+01,1.200000000217599165e+02,-1.087058020837591756e-03
2.980004656093243298e+01,1.200000000219727667e+02,-1.088478592681413858e-03
2.980004674158732314e+01,1.200000000221918981e+02,-1.090306915944670024e-03
2.980004692224567719e+01,1.200000000224157475e+02,-1.092309932986563516e-03
2.980004710290593550e+01,1.200000000226419843e+02,-1.094495638977677427e-03
