pos_lat (deg),pos_lon (deg),pos_alt (m)
3.098656307200000271e+01,1.199999999999999858e+02,0.000000000000000000e+00
3.098656325239269904e+01,1.199999999999999858e+02,0.000000000000000000e+00
3.098656343278999969e+01,1.200000000000047748e+02,-4.367406298064173308e-07
3.098656361318574426e+01,1.200000000000149072e+02,-5.537598340238112445e-07
3.098656379357840152e+01,1.200000000000274269e+02,-4.724978910034548375e-07
3.098656397397265749e+01,1.200000000000399609e+02,-1.080085044050572420e-07
3.098656415436780875e+01,1.200000000000531628e+02,-3.837092713949788636e-07
3.098656433476075378e+01,1.200000000000658957e+02,-8.078451382658676176e-07
3.098656451515516963e+01,1.200000000000843130e+02,-6.238128414865015866e-07
3.098656469554808268e+01,1.200000000000996039e+02,-4.194754444071537410e-07
3.098656487593589759e+01,1.200000000001165290e+02,-8.378232723546662259e-07
3.098656505632149560e+01,1.200000000001348752e+02,-1.697595707876658612e-06
3.098656523671263585e+01,1.200000000001503366e+02,-2.033715218245568874e-06
3.098656541709783951e+01,1.200000000001704166e+02,-2.955959417644716385e-06
3.098656559748155104e+01,1.200000000001904681e+02,-4.607694302824739705e-06
3.098656577787094335e+01,1.200000000002210072e+02,-6.331696058407016880e-06
3.098656595825672966e+01,1.200000000002541327e+02,-8.703046262800999923e-06
3.098656613864300269e+01,1.200000000002913794e+02,-1.064007505749882240e-05
3.098656631902136738e+01,1.200000000003209522e+02,-1.253306360605557619e-05
3.098656649940959085e+01,1.200000000003538503e+02,-1.482947875746134156e-05
3.098656667980143098e+01,1.200000000003989555e+02,-1.784588408021500698e-05
3.098656686019780437e+01,1.200000000004461640e+02,-2.143237055906821285e-05
3.098656704059298761e+01,1.200000000004944809e+02,-2.483289018706698925e-05
3.098656722099177685e+01,1.200000000005431531e+02,-2.776352981636867276e-05
3.098656740140091159e+01,1.200000000005877610e+02,-2.995424368990116243e-05
3.098656758181320114e+01,1.200000000006393321e+02,-3.186056005602311330e-05
3.098656776221877251e+01,1.200000000006923386e+02,-3.403197897636945924e-05
3.098656794261869507e+01,1.200000000007428156e+02,-3.659509964234643463e-05
3.098656812301249985e+01,1.200000000007930652e+02,-3.882209878195458266e-05
3.098656830341131396e+01,1.200000000008385683e+02,-4.105353828652749508e-05
3.098656848380210960e+01,1.200000000008858621e+02,-4.347837870733340938e-05
3.098656866419181100e+01,1.200000000009320757e+02,-4.582847055250454277e-05
3.098656884458745253e+01,1.200000000009822259e+02,-4.722565354306148161e-05
3.098656902498476740e+01,1.200000000010308696e+02,-4.888267761507359381e-05
3.098656920538201121e+01,1.200000000010844872e+02,-5.102843651897295938e-05
3.098656938578992381e+01,1.200000000011424675e+02,-5.337909694063555058e-05
3.098656956619991121e+01,1.200000000012029346e+02,-5.603318444965172979e-05
3.098656974661534846e+01,1.200000000012625634e+02,-5.885912581822045275e-05
3.098656992704275126e+01,1.200000000013191368e+02,-6.141502543091881218e-05
3.098657010746866547e+01,1.200000000013776855e+02,-6.344933239068636769e-05
3.098657028789097367e+01,1.200000000014410659e+02,-6.611495931842910833e-05
3.098657046831202067e+01,1.200000000015048727e+02,-6.846099289745050185e-05
3.098657064873804856e+01,1.200000000015689778e+02,-7.165477981822026741e-05
3.098657082915869765e+01,1.200000000016427890e+02,-7.521361960935858508e-05
3.098657100957508703e+01,1.200000000017074626e+02,-7.823354537712210615e-05
3.098657118999136628e+01,1.200000000017690098e+02,-8.211638533290781868e-05
3.098657137040882148e+01,1.200000000018328308e+02,-8.612264269487862590e-05
3.098657155082344516e+01,1.200000000019047803e+02,-8.959895067316547953e-05
3.098657173124090392e+01,1.200000000019864927e+02,-9.282123833848071734e-05
3.098657191165779778e+01,1.200000000020608582e+02,-9.640048911333864241e-05
3.098657209207829766e+01,1.200000000021425137e+02,-1.004186125965518002e-04
3.098657227249097090e+01,1.200000000022178028e+02,-1.042328145060432740e-04
3.098657245290563012e+01,1.200000000022988900e+02,-1.079094619047447586e-04
3.098657263332011524e+01,1.200000000023787408e+02,-1.124918155999583022e-04
3.098657281373696648e+01,1.200000000024674591e+02,-1.170556968179104439e-04
3.098657299415443944e+01,1.200000000025557796e+02,-1.210351350740112707e-04
3.098657317457147187e+01,1.200000000026512197e+02,-1.246525215056508364e-04
3.098657335498542764e+01,1.200000000027527420e+02,-1.278222794608048496e-04
3.098657353540986747e+01,1.200000000028659457e+02,-1.309403325430963480e-04
3.098657371583898623e+01,1.200000000029853879e+02,-1.352612039268788740e-04
3.098657389627607728e+01,1.200000000030949536e+02,-1.384952799464681688e-04
3.098657407671585773e+01,1.200000000032112837e+02,-1.416937399761241040e-04
3.098657425715330049e+01,1.200000000033230378e+02,-1.438819704651008585e-04
3.098657443759962149e+01,1.200000000034337404e+02,-1.451031316155196402e-04
3.098657461805234092e+01,1.200000000035384460e+02,-1.462573904001327190e-04
3.098657479850220398e+01,1.200000000036398404e+02,-1.474227091222952252e-04
3.098657497895256441e+01,1.200000000037400127e+02,-1.493230514593492397e-04
3.098657515941027185e+01,1.200000000038395029e+02,-1.516619120283276532e-04
3.098657533987229229e+01,1.200000000039324988e+02,-1.533450031149561992e-04
3.098657552033467510e+01,1.200000000040227377e+02,-1.550514557760373710e-04
3.098657570079021184e+01,1.200000000041095944e+02,-1.566298294587964413e-04
3.098657588124383011e+01,1.200000000041933390e+02,-1.581830850882894415e-04
3.098657606170088741e+01,1.200000000042789310e+02,-1.599529773212878252e-04
3.098657624215360329e+01,1.200000000043738595e+02,-1.610170673886299750e-04
3.098657642260420531e+01,1.200000000044774708e+02,-1.627256413959076429e-04
3.098657660306217210e+01,1.200000000045724846e+02,-1.643620232676466081e-04
3.098657678352353173e+01,1.200000000046653241e+02,-1.661663433290551080e-04
3.098657696398511163e+01,1.200000000047521951e+02,-1.692386605059607385e-04
3.098657714444982147e+01,1.200000000048441251e+02,-1.720198152238836865e-04
3.098657732491625083e+01,1.200000000049271023e+02,-1.748548399822503173e-04
3.098657750537961775e+01,1.200000000050032298e+02,-1.765349225160086526e-04
3.098657768583790073e+01,1.200000000050815032e+02,-1.769751421545489342e-04
3.098657786629486210e+01,1.200000000051521880e+02,-1.768798644928734306e-04
3.098657804675707794e+01,1.200000000052254450e+02,-1.762788624340644935e-04
3.098657822722069710e+01,1.200000000053005493e+02,-1.759565957339313228e-04
3.098657840768215621e+01,1.200000000053679798e+02,-1.755378448214603166e-04
3.098657858814749844e+01,1.200000000054368314e+02,-1.750704090134712202e-04
3.098657876861559046e+01,1.200000000055120211e+02,-1.738720676312079170e-04
3.098657894907891475e+01,1.200000000055794658e+02,-1.727095975937347806e-04
3.098657912954075755e+01,1.200000000056505343e+02,-1.716945810310449051e-04
3.098657930999954147e+01,1.200000000057151937e+02,-1.696120296857754324e-04
3.098657949045876592e+01,1.200000000057745098e+02,-1.680571185907037384e-04
3.098657967091716259e+01,1.200000000058420397e+02,-1.662271080856722138e-04
3.098657985136892634e+01,1.200000000059046243e+02,-1.643376074909873330e-04
3.098658003182437781e+01,1.200000000059737602e+02,-1.631175133907406222e-04
3.098658021228191828e+01,1.200000000060364869e+02,-1.622462805417360055e-04
3.098658039274141984e+01,1.200000000061050542e+02,-1.613337431982695498e-04
3.098658057320496084e+01,1.200000000061828160e+02,-1.602146306868799670e-04
3.098658075366956766e+01,1.200000000062649264e+02,-1.594109101535036638e-04
3.098658093413008174e+01,1.200000000063504331e+02,-1.576766940072100846e-04
