pos_lat (deg),pos_lon (deg),pos_alt (m)
2.980000000000000426e+01,1.199999999999999858e+02,0.000000000000000000e+00
2.980000018042549925e+01,1.199999999999999858e+02,0.000000000000000000e+00
2.980000036084258497e+01,1.200000000000051585e+02,6.465746118383547733e-07
2.980000054125847342e+01,1.200000000000085123e+02,1.740993300312673511e-06
2.980000072167814196e+01,1.200000000000070628e+02,2.963149504129094235e-06
2.980000090209999541e+01,1.200000000000084128e+02,3.660102590702020255e-06
2.980000108251803681e+01,1.199999999999980247e+02,4.434545027823154692e-06
2.980000126293576912e+01,1.199999999999834301e+02,5.551856138233571107e-06
2.980000144335827628e+01,1.199999999999694040e+02,5.822708567832215391e-06
2.980000162378095752e+01,1.199999999999511147e+02,6.184463157850463334e-06
2.980000180420379863e+01,1.199999999999234319e+02,6.798593931112672023e-06
2.980000198462339256e+01,1.199999999999016040e+02,7.616152022578291256e-06
2.980000216503892929e+01,1.199999999998894111e+02,8.491295423518778392e-06
2.980000234546128368e+01,1.199999999998759961e+02,9.020528207124122312e-06
2.980000252588864029e+01,1.199999999998615721e+02,9.228373429497745028e-06
2.980000270631044756e+01,1.199999999998482707e+02,9.880586290489878042e-06
2.980000288672597364e+01,1.199999999998340172e+02,1.081399401565241540e-05
2.980000306714083891e+01,1.199999999998242401e+02,1.249027646778550273e-05
2.980000324756575836e+01,1.199999999998184990e+02,1.354180799818722233e-05
2.980000342798678759e+01,1.199999999998111662e+02,1.450265184149481905e-05
2.980000360840898921e+01,1.199999999997996980e+02,1.543151168651072679e-05
2.980000378882509438e+01,1.199999999997859561e+02,1.600286105661402085e-05
2.980000396924303274e+01,1.199999999997658762e+02,1.737437107203012148e-05
2.980000414966789535e+01,1.199999999997435083e+02,1.860694913341667830e-05
2.980000433009630356e+01,1.199999999997283169e+02,1.966718522370825147e-05
2.980000451053210497e+01,1.199999999997076401e+02,2.040345031437724597e-05
2.980000469096886917e+01,1.199999999996827427e+02,2.059286642125482888e-05
2.980000487140343424e+01,1.199999999996523883e+02,2.135964378556593355e-05
2.980000505184008830e+01,1.199999999996236681e+02,2.175560708268891284e-05
2.980000523228855869e+01,1.199999999995893205e+02,2.089589342634105590e-05
2.980000541273376058e+01,1.199999999995422968e+02,1.952545783793745024e-05
2.980000559317621978e+01,1.199999999994928288e+02,1.799983089243503681e-05
2.980000577361761671e+01,1.199999999994450235e+02,1.613323226890457583e-05
2.980000595406211872e+01,1.199999999993986108e+02,1.450206794337042011e-05
2.980000613450554425e+01,1.199999999993514876e+02,1.256523830853144291e-05
2.980000631494525010e+01,1.199999999993091961e+02,1.055434427086726070e-05
2.980000649539148938e+01,1.199999999992737116e+02,7.913483261132214083e-06
2.980000667583541230e+01,1.199999999992460715e+02,5.066881807212808878e-06
2.980000685627890178e+01,1.199999999992191846e+02,2.500170611634092696e-06
2.980000703671156614e+01,1.199999999991905071e+02,4.821535328462289149e-08
2.980000721714500500e+01,1.199999999991649275e+02,-2.782307377080663793e-06
2.980000739758174078e+01,1.199999999991462261e+02,-5.681176940536206285e-06
2.980000757801618505e+01,1.199999999991302815e+02,-9.163799493199139141e-06
2.980000775844614935e+01,1.199999999991146780e+02,-1.263772529643969099e-05
2.980000793888114075e+01,1.199999999991044746e+02,-1.637568052880788506e-05
2.980000811932172411e+01,1.199999999990926227e+02,-1.969737495184499155e-05
2.980000829976044585e+01,1.199999999990776871e+02,-2.356339428797393852e-05
2.980000848019668780e+01,1.199999999990648263e+02,-2.849631001219183403e-05
2.980000866063581455e+01,1.199999999990518518e+02,-3.301086004218510366e-05
2.980000884106699033e+01,1.199999999990402557e+02,-3.771134073772307641e-05
2.980000902150821673e+01,1.199999999990274091e+02,-4.162597219608411673e-05
2.980000920195275427e+01,1.199999999990119335e+02,-4.586724322292062454e-05
2.980000938239487951e+01,1.199999999989953210e+02,-4.938236454559070433e-05
2.980000956283345204e+01,1.199999999989808970e+02,-5.316530180866867709e-05
2.980000974326920016e+01,1.199999999989655208e+02,-5.694242475482909902e-05
2.980000992370012725e+01,1.199999999989471462e+02,-5.987270809314232677e-05
2.980001010412530960e+01,1.199999999989322390e+02,-6.269329665982263395e-05
2.980001028455997769e+01,1.199999999989256025e+02,-6.484456472663011474e-05
2.980001046499519290e+01,1.199999999989171755e+02,-6.675615734430671475e-05
2.980001064542325651e+01,1.199999999989137365e+02,-6.808871202420187631e-05
2.980001082584797345e+01,1.199999999989121164e+02,-7.006099472433782857e-05
2.980001100627425004e+01,1.199999999989104396e+02,-7.187109836152999769e-05
2.980001118670173810e+01,1.199999999989024388e+02,-7.368770230948135092e-05
2.980001136713208965e+01,1.199999999988913828e+02,-7.490237476751981493e-05
2.980001154755181503e+01,1.199999999988815063e+02,-7.568419707553059332e-05
2.980001172797294728e+01,1.199999999988753245e+02,-7.679610817174638249e-05
2.980001190838963865e+01,1.199999999988738182e+02,-7.844689286645285212e-05
2.980001208881721908e+01,1.199999999988709902e+02,-8.084503130389003838e-05
2.980001226924455793e+01,1.199999999988655475e+02,-8.249181226554477614e-05
2.980001244967175111e+01,1.199999999988554436e+02,-8.378161904000995660e-05
2.980001263010639789e+01,1.199999999988448849e+02,-8.515296365541630166e-05
2.980001281054146034e+01,1.199999999988266950e+02,-8.701468513786400866e-05
2.980001299098351453e+01,1.199999999987991117e+02,-8.852126844277301699e-05
2.980001317142791351e+01,1.199999999987792449e+02,-9.062608105135523922e-05
2.980001335187254341e+01,1.199999999987608277e+02,-9.287941335796206566e-05
2.980001353232531258e+01,1.199999999987316102e+02,-9.476038840048383390e-05
2.980001371277345257e+01,1.199999999986997352e+02,-9.661401249185921154e-05
2.980001389322276850e+01,1.199999999986625738e+02,-9.882330524879565363e-05
2.980001407367454291e+01,1.199999999986294057e+02,-1.008669366145143598e-04
2.980001425412008587e+01,1.199999999985931396e+02,-1.033834371688041099e-04
2.980001443456708898e+01,1.199999999985548698e+02,-1.052064319080867375e-04
2.980001461501019122e+01,1.199999999985195558e+02,-1.076292443380873155e-04
2.980001479545176579e+01,1.199999999984810160e+02,-1.096551976796993983e-04
2.980001497589654136e+01,1.199999999984508889e+02,-1.118938040579344856e-04
2.980001515634176101e+01,1.199999999984216714e+02,-1.147787326024981609e-04
2.980001533678570169e+01,1.199999999983837142e+02,-1.176883867938742484e-04
2.980001551723794506e+01,1.199999999983520098e+02,-1.210307878129809601e-04
2.980001569769303771e+01,1.199999999983149337e+02,-1.240279353417570872e-04
2.980001587814354025e+01,1.199999999982747880e+02,-1.264867138297907500e-04
2.980001605860045899e+01,1.199999999982366603e+02,-1.291506816661128470e-04
2.980001623906462882e+01,1.199999999981952215e+02,-1.320620363959198985e-04
2.980001641952029345e+01,1.199999999981457250e+02,-1.346273872577130766e-04
2.980001659997548202e+01,1.199999999981011456e+02,-1.365214712037094498e-04
2.980001678043131719e+01,1.199999999980631316e+02,-1.383348096295016459e-04
2.980001696088933727e+01,1.199999999980330898e+02,-1.398469161008726537e-04
2.980001714135191548e+01,1.199999999980068566e+02,-1.413067260884292415e-04
2.980001732181498753e+01,1.199999999979824281e+02,-1.423573537526032933e-04
2.980001750227906143e+01,1.199999999979645366e+02,-1.428074884675823038e-04
2.980001768274837914e+01,1.199999999979473841e+02,-1.431207723412442892e-04
2.980001786321233226e+01,1.199999999979356033e+02,-1.432704566938453679e-04
2.980001804367391216e+01,1.199999999979198577e+02,-1.432474503041859402e-04
2.980001822413770896e+01,1.199999999979044958e+02,-1.428832924731384887e-04
2.980001840459827633e+01,1.199999999978927292e+02,-1.426028952793395425e-04
2.980001858505665169e+01,1.199999999978808205e+02,-1.424882056033635667e-04
2.980001876551238027e+01,1.199999999978694802e+02,-1.423869774379235835e-04
2.980001894596842149e+01,1.199999999978622327e+02,-1.423194922265606354e-04
2.980001912642027762e+01,1.199999999978575147e+02,-1.426884643043793677e-04
2.980001930688157685e+01,1.199999999978628864e+02,-1.423875111064036505e-04
2.980001948734401296e+01,1.199999999978699350e+02,-1.418624088791509467e-04
2.980001966780799094e+01,1.199999999978888638e+02,-1.415832020999454514e-04
2.980001984826812134e+01,1.199999999979124254e+02,-1.412056400031823280e-04
2.980002002873224143e+01,1.199999999979355323e+02,-1.406924873754877468e-04
2.980002020919489070e+01,1.199999999979708463e+02,-1.395447106501764727e-04
2.980002038965353250e+01,1.199999999980032896e+02,-1.385591475910922198e-04
2.980002057011534333e+01,1.199999999980372820e+02,-1.381488148578942333e-04
2.980002075057185351e+01,1.199999999980741308e+02,-1.372125753340440782e-04
2.980002093102222815e+01,1.199999999981146601e+02,-1.359310091572793423e-04
2.980002111146852783e+01,1.199999999981583443e+02,-1.348954421914882074e-04
2.980002129192033422e+01,1.199999999981987315e+02,-1.341332102978824183e-04
2.980002147235997967e+01,1.199999999982419041e+02,-1.328655361591643709e-04
2.980002165279478277e+01,1.199999999982867678e+02,-1.313555667297117624e-04
2.980002183323292186e+01,1.199999999983416501e+02,-1.291042657460958129e-04
2.980002201367150150e+01,1.199999999983989056e+02,-1.262560806673555997e-04
2.980002219411399267e+01,1.199999999984622860e+02,-1.230589763481654015e-04
2.980002237455245861e+01,1.199999999985228669e+02,-1.197028175144883289e-04
2.980002255498922281e+01,1.199999999985680006e+02,-1.167343978640381942e-04
2.980002273542443092e+01,1.199999999986143138e+02,-1.136147861897763802e-04
2.980002291586275120e+01,1.199999999986615364e+02,-1.099674555731109597e-04
2.980002309629699653e+01,1.199999999987053485e+02,-1.060683571564740479e-04
2.980002327673251017e+01,1.199999999987484074e+02,-1.014858417073660730e-04
2.980002345716138379e+01,1.199999999987888657e+02,-9.659387107834499541e-05
2.980002363759183481e+01,1.199999999988411190e+02,-9.206126161432174346e-05
2.980002381802280453e+01,1.199999999988940544e+02,-8.808290790624787785e-05
2.980002399845129091e+01,1.199999999989448867e+02,-8.498222196388442718e-05
2.980002417888671928e+01,1.199999999989939710e+02,-8.174238065210966359e-05
2.980002435932847860e+01,1.199999999990408668e+02,-7.821534394476501210e-05
2.980002453977120069e+01,1.199999999990868673e+02,-7.519370669574374996e-05
2.980002472021315185e+01,1.199999999991357669e+02,-7.250889690425106843e-05
2.980002490065170662e+01,1.199999999991902797e+02,-7.016983497664457353e-05
2.980002508108854187e+01,1.199999999992410125e+02,-6.711523103449516152e-05
2.980002526152449249e+01,1.199999999992889741e+02,-6.378858409892297621e-05
2.980002544195587078e+01,1.199999999993423216e+02,-6.035820447285450820e-05
2.980002562238980701e+01,1.199999999994002451e+02,-5.686176341239055059e-05
2.980002580283359848e+01,1.199999999994641513e+02,-5.367181733033595442e-05
2.980002598328005803e+01,1.199999999995186641e+02,-5.022156714739366357e-05
2.980002616372012625e+01,1.199999999995724949e+02,-4.745884569290080481e-05
2.980002634416567631e+01,1.199999999996290398e+02,-4.527060211685879858e-05
2.980002652460807866e+01,1.199999999996842490e+02,-4.253884739734789414e-05
2.980002670505477624e+01,1.199999999997447873e+02,-3.992188243542587765e-05
2.980002688549742018e+01,1.199999999998094609e+02,-3.717696672637696670e-05
2.980002706593897699e+01,1.199999999998722870e+02,-3.477122641321968484e-05
2.980002724638341860e+01,1.199999999999335358e+02,-3.194670746053384231e-05
2.980002742682073347e+01,1.199999999999926814e+02,-2.864640233382777625e-05
2.980002760725516708e+01,1.200000000000524523e+02,-2.505660976906614408e-05
2.980002778768920280e+01,1.200000000001140137e+02,-2.258133704145398352e-05
2.980002796812163268e+01,1.200000000001733156e+02,-2.058868259217492191e-05
2.980002814855024340e+01,1.200000000002272031e+02,-1.886610817391486884e-05
2.980002832897842069e+01,1.200000000002825828e+02,-1.701411107191834582e-05
2.980002850940752168e+01,1.200000000003380478e+02,-1.554741638910073895e-05
2.980002868984008302e+01,1.200000000004002345e+02,-1.430164886760441637e-05
2.980002887026930836e+01,1.200000000004620091e+02,-1.220738188985296393e-05
2.980002905068900176e+01,1.200000000005234853e+02,-9.761360515962122134e-06
2.980002923110987822e+01,1.200000000005867946e+02,-7.266252260524023112e-06
2.980002941152488205e+01,1.200000000006447038e+02,-4.935076261210016472e-06
2.980002959193343059e+01,1.200000000007067342e+02,-2.026760059465869683e-06
2.980002977234409656e+01,1.200000000007762537e+02,7.058356501959555889e-07
2.980002995275069111e+01,1.200000000008477770e+02,4.779002172859625094e-06
2.980003013315295135e+01,1.200000000009200107e+02,8.400731109089126471e-06
2.980003031355600385e+01,1.200000000009967778e+02,1.171503180133719716e-05
2.980003049395212855e+01,1.200000000010660415e+02,1.498908642032356284e-05
2.980003067434634545e+01,1.200000000011349925e+02,1.944772957500305396e-05
2.980003085475225433e+01,1.200000000011985293e+02,2.323727128313291511e-05
2.980003103515678120e+01,1.200000000012606876e+02,2.751897411255028975e-05
2.980003121556057266e+01,1.200000000013187531e+02,3.243516356691034536e-05
2.980003139596595929e+01,1.200000000013750849e+02,3.695509814158069229e-05
2.980003157637137079e+01,1.200000000014258177e+02,4.160706124375749843e-05
2.980003175677828509e+01,1.200000000014754136e+02,4.684625482413703671e-05
2.980003193718965804e+01,1.200000000015234036e+02,5.252470445779644558e-05
2.980003211759683879e+01,1.200000000015725021e+02,5.878142543665107581e-05
2.980003229798682085e+01,1.200000000016248407e+02,6.510589479704961412e-05
2.980003247837576907e+01,1.200000000016831621e+02,7.087460694272440444e-05
2.980003265876166552e+01,1.200000000017477646e+02,7.691082444908672584e-05
2.980003283914782486e+01,1.200000000018137030e+02,8.342599932849234783e-05
2.980003301954196360e+01,1.200000000018864625e+02,9.050555585982816582e-05
2.980003319993059563e+01,1.200000000019571473e+02,9.705770336565199279e-05
2.980003338032204141e+01,1.200000000020227162e+02,1.037772077385742465e-04
2.980003356071553711e+01,1.200000000020850308e+02,1.110243319210191119e-04
2.980003374111158720e+01,1.200000000021488944e+02,1.178422414844360999e-04
2.980003392151159858e+01,1.200000000022155433e+02,1.241576337658282939e-04
2.980003410191038427e+01,1.200000000022810127e+02,1.299521420339255198e-04
2.980003428230612172e+01,1.200000000023509301e+02,1.353588030229128686e-04
2.980003446270940159e+01,1.200000000024200375e+02,1.406666987969508442e-04
2.980003464310631500e+01,1.200000000024882496e+02,1.462924462089318790e-04
2.980003482349907529e+01,1.200000000025548985e+02,1.509023410727450656e-04
2.980003500390133908e+01,1.200000000026200269e+02,1.557303002637548607e-04
2.980003518430551424e+01,1.200000000026781493e+02,1.605617646764551955e-04
2.980003536471334158e+01,1.200000000027376075e+02,1.643111777668900138e-04
2.980003554512092379e+01,1.200000000027896618e+02,1.676952148078656541e-04
2.980003572553519220e+01,1.200000000028452831e+02,1.705517750054855826e-04
2.980003590594473195e+01,1.200000000028990996e+02,1.745348754418962550e-04
2.980003608634545742e+01,1.200000000029538825e+02,1.780146996158736366e-04
2.980003626675225092e+01,1.200000000030136249e+02,1.819368877235762628e-04
2.980003644715942457e+01,1.200000000030694025e+02,1.856595700255992787e-04
2.980003662756664795e+01,1.200000000031210021e+02,1.894032896394979486e-04
2.980003680797814170e+01,1.200000000031842120e+02,1.931777274185410623e-04
2.980003698838990545e+01,1.200000000032520688e+02,1.974303738802787726e-04
2.980003716880076325e+01,1.200000000033148950e+02,2.019748207146314020e-04
2.980003734921328729e+01,1.200000000033788297e+02,2.062369430906600047e-04
2.980003752962416286e+01,1.200000000034328025e+02,2.104439766462928006e-04
2.980003771003369195e+01,1.200000000034845584e+02,2.152735318948823971e-04
2.980003789044991791e+01,1.200000000035283989e+02,2.208041050210781330e-04
2.980003807087656398e+01,1.200000000035667966e+02,2.261727687379567163e-04
2.980003825130412665e+01,1.200000000036046544e+02,2.316643244548448235e-04
2.980003843173311751e+01,1.200000000036498733e+02,2.382431466470345111e-04
2.980003861216195205e+01,1.200000000036905021e+02,2.443662213093782511e-04
2.980003879258616095e+01,1.200000000037356926e+02,2.500366583078027227e-04
2.980003897301234517e+01,1.200000000037880881e+02,2.550144588711925845e-04
2.980003915343954191e+01,1.200000000038390766e+02,2.596284754412857623e-04
2.980003933386674930e+01,1.200000000038977959e+02,2.645641286239533495e-04
2.980003951429959130e+01,1.200000000039455301e+02,2.696865141110493520e-04
2.980003969473938596e+01,1.200000000039937049e+02,2.751749985340987679e-04
2.980003987517907049e+01,1.200000000040401034e+02,2.804448645118707553e-04
2.980004005561403702e+01,1.200000000040921151e+02,2.855596836573351242e-04
2.980004023604341157e+01,1.200000000041371351e+02,2.906236798305481374e-04
2.980004041647438839e+01,1.200000000041878110e+02,2.955724292589594006e-04
2.980004059691090035e+01,1.200000000042343800e+02,3.002603061117758488e-04
2.980004077734310641e+01,1.200000000042727493e+02,3.054088575275940324e-04
2.980004095778149420e+01,1.200000000043152397e+02,3.104199462466787065e-04
2.980004113823018841e+01,1.200000000043599186e+02,3.160013086630004855e-04
2.980004131868047423e+01,1.200000000043995669e+02,3.208040075708285671e-04
2.980004149912778644e+01,1.200000000044316977e+02,3.259544126020209528e-04
2.980004167957688210e+01,1.200000000044567656e+02,3.313262902191169731e-04
2.980004186002914324e+01,1.200000000044906727e+02,3.356483842964109597e-04
2.980004204049162198e+01,1.200000000045210129e+02,3.395421419685778672e-04
2.980004222095361399e+01,1.200000000045567532e+02,3.434344645733721684e-04
2.980004240141588312e+01,1.200000000046018158e+02,3.473979163672558340e-04
2.980004258187510402e+01,1.200000000046414073e+02,3.518030264748312039e-04
2.980004276232340388e+01,1.200000000046893547e+02,3.567733913819238394e-04
2.980004294277421550e+01,1.200000000047407980e+02,3.617444285340386560e-04
2.980004312322425264e+01,1.200000000047995314e+02,3.672372141521588638e-04
2.980004330367439991e+01,1.200000000048631392e+02,3.725480470991664704e-04
2.980004348412879978e+01,1.200000000049244875e+02,3.778948904085332387e-04
2.980004366458701170e+01,1.200000000049838889e+02,3.831510295906383483e-04
2.980004384504525206e+01,1.200000000050443703e+02,3.873546482146048952e-04
2.980004402550685327e+01,1.200000000051037148e+02,3.919976230468401887e-04
2.980004420597511938e+01,1.200000000051689284e+02,3.966540437832756982e-04
2.980004438644349207e+01,1.200000000052374531e+02,4.012130379678483026e-04
2.980004456690908299e+01,1.200000000053040878e+02,4.061023870112385223e-04
2.980004474738040088e+01,1.200000000053666582e+02,4.111392999873761216e-04
2.980004492785177206e+01,1.200000000054278217e+02,4.152857410633156851e-04
2.980004510832928943e+01,1.200000000054857878e+02,4.201807139318415206e-04
2.980004528880157721e+01,1.200000000055369611e+02,4.245496417861916046e-04
2.980004546926612718e+01,1.200000000055876086e+02,4.293396150382987092e-04
2.980004564972513847e+01,1.200000000056393645e+02,4.347961240861090526e-04
2.980004583017884556e+01,1.200000000056957816e+02,4.405426300897801947e-04
2.980004601063954794e+01,1.200000000057530514e+02,4.469634484511259345e-04
2.980004619109820396e+01,1.200000000058199277e+02,4.533415484636997583e-04
2.980004637155580838e+01,1.200000000058872303e+02,4.592055293867116782e-04
2.980004655200932362e+01,1.200000000059490475e+02,4.647845789591475919e-04
2.980004673246112645e+01,1.200000000060124137e+02,4.699091130549652002e-04
2.980004691290957908e+01,1.200000000060767604e+02,4.750924198387375982e-04
2.980004709336406066e+01,1.200000000061407803e+02,4.799096238859908723e-04
2.980004727381821894e+01,1.200000000062086087e+02,4.844643071124156192e-04
2.980004745427061508e+01,1.200000000062812262e+02,4.886253829056884032e-04
