pos_lat (deg),pos_lon (deg),pos_alt (m)
2.999999999999999645e+01,1.199999999999999858e+02,0.000000000000000000e+00
3.000000009021000480e+01,1.199999999999999858e+02,0.000000000000000000e+00
3.000000018041749072e+01,1.199999999999968878e+02,2.282109383376497440e-07
3.000000027062433716e+01,1.199999999999982805e+02,7.650446696263537822e-07
3.000000036082620980e+01,1.200000000000069633e+02,1.891867389791285279e-06
3.000000045102778401e+01,1.200000000000159162e+02,3.708600819785600250e-06
3.000000054123054838e+01,1.200000000000214868e+02,5.074847322882649436e-06
3.000000063143358631e+01,1.200000000000349587e+02,6.870072143109999874e-06
3.000000072163549447e+01,1.200000000000474927e+02,8.628708172499858353e-06
3.000000081184077061e+01,1.200000000000588187e+02,1.039930945636900578e-05
3.000000090205062264e+01,1.200000000000705995e+02,1.258722444603016994e-05
3.000000099225851358e+01,1.200000000000773639e+02,1.380860137176380541e-05
3.000000108246391051e+01,1.200000000000875247e+02,1.521091331342257440e-05
3.000000117267019561e+01,1.200000000000850520e+02,1.661289176075847097e-05
3.000000126288173163e+01,1.200000000000765255e+02,1.806097126573552933e-05
3.000000135309624483e+01,1.200000000000668621e+02,2.028487191241940511e-05
3.000000144331302110e+01,1.200000000000623572e+02,2.206372776020278063e-05
3.000000153352497634e+01,1.200000000000602114e+02,2.414914064270376367e-05
3.000000162373950729e+01,1.200000000000554081e+02,2.660716772192110691e-05
3.000000171395370430e+01,1.200000000000507754e+02,2.849173589808502165e-05
3.000000180416904882e+01,1.200000000000487717e+02,2.995759180463224787e-05
3.000000189438560483e+01,1.200000000000508749e+02,3.104747089688011968e-05
3.000000198460398337e+01,1.200000000000566303e+02,3.274559272856553534e-05
3.000000207482912629e+01,1.200000000000638636e+02,3.401368671106205945e-05
3.000000216505612016e+01,1.200000000000767102e+02,3.493970362671890021e-05
3.000000225528288311e+01,1.200000000000947011e+02,3.628294777085827794e-05
3.000000234550353895e+01,1.200000000001110863e+02,3.731519138387890295e-05
3.000000243572269554e+01,1.200000000001206928e+02,3.840004600252544986e-05
3.000000252594549011e+01,1.200000000001360974e+02,3.953547570719601317e-05
3.000000261616872521e+01,1.200000000001599574e+02,4.003247555585762461e-05
3.000000270638933131e+01,1.200000000001824532e+02,4.036322770840229765e-05
3.000000279660629232e+01,1.200000000002037268e+02,3.991356784680102953e-05
3.000000288682137750e+01,1.200000000002206519e+02,3.913829067335748485e-05
3.000000297703854102e+01,1.200000000002435456e+02,3.875869522909563761e-05
3.000000306725812393e+01,1.200000000002757048e+02,3.792826925916457963e-05
3.000000315747717394e+01,1.200000000003058318e+02,3.638566367466264888e-05
3.000000324771362514e+01,1.200000000003304876e+02,3.382430678332070490e-05
3.000000333794823959e+01,1.200000000003579999e+02,3.163145839650093586e-05
3.000000342818183441e+01,1.200000000003942233e+02,2.948473866222283299e-05
3.000000351841851298e+01,1.200000000004271072e+02,2.759596564624911899e-05
3.000000360865712423e+01,1.200000000004575895e+02,2.528084634053214360e-05
3.000000369889516705e+01,1.200000000004866365e+02,2.310498703285318689e-05
3.000000378912724130e+01,1.200000000005193357e+02,2.126904240848105678e-05
3.000000387936261248e+01,1.200000000005484253e+02,2.027721315741776151e-05
3.000000396959680415e+01,1.200000000005826166e+02,1.902519658318048109e-05
3.000000405983183782e+01,1.200000000006180301e+02,1.755639235395207504e-05
3.000000415006655885e+01,1.200000000006576215e+02,1.563609195108093931e-05
3.000000424031333779e+01,1.200000000006939302e+02,1.336660339565320279e-05
3.000000433054429294e+01,1.200000000007361933e+02,1.116041890638183026e-05
3.000000442077408991e+01,1.200000000007748469e+02,8.268525306251090011e-06
3.000000451100735432e+01,1.200000000008226380e+02,4.560734099338616181e-06
3.000000460124017465e+01,1.200000000008692496e+02,2.102846965662363263e-07
3.000000469147113691e+01,1.200000000009087699e+02,-4.170690802171335314e-06
3.000000478171264007e+01,1.200000000009519141e+02,-7.519884323475928946e-06
3.000000487196136234e+01,1.200000000009988383e+02,-9.519797216008344927e-06
3.000000496220646085e+01,1.200000000010543602e+02,-1.212771761605896737e-05
3.000000505244985760e+01,1.200000000011014549e+02,-1.414816330206144418e-05
3.000000514269289198e+01,1.200000000011518040e+02,-1.658019190440597818e-05
3.000000523294026067e+01,1.200000000012051373e+02,-1.880536543815287311e-05
3.000000532319009139e+01,1.200000000012566375e+02,-2.068491969783056126e-05
3.000000541343831628e+01,1.200000000013090755e+02,-2.301834327641469143e-05
3.000000550368733698e+01,1.200000000013671979e+02,-2.613572543813881649e-05
3.000000559393409461e+01,1.200000000014214692e+02,-2.910553363291791719e-05
3.000000568417195979e+01,1.200000000014788952e+02,-3.207538633924045241e-05
3.000000577440748373e+01,1.200000000015349713e+02,-3.446245084106501808e-05
3.000000586464595642e+01,1.200000000015925394e+02,-3.808631257061201303e-05
3.000000595487661315e+01,1.200000000016543851e+02,-4.094136067088296381e-05
3.000000604511233604e+01,1.200000000017085284e+02,-4.498352353065915185e-05
3.000000613534471583e+01,1.200000000017631123e+02,-4.923706051914995656e-05
3.000000622558075491e+01,1.200000000018220874e+02,-5.376265965447349886e-05
3.000000631581944432e+01,1.200000000018813040e+02,-5.792191368947036606e-05
3.000000640606015878e+01,1.200000000019371242e+02,-6.167553999346123638e-05
3.000000649629417637e+01,1.200000000019870754e+02,-6.577533887392265617e-05
3.000000658653533492e+01,1.200000000020398403e+02,-7.010977882904643706e-05
3.000000667677219468e+01,1.200000000021006059e+02,-7.403558734483893489e-05
3.000000676700830127e+01,1.200000000021618547e+02,-7.838936022613209715e-05
3.000000685723946248e+01,1.200000000022218813e+02,-8.278692364744257731e-05
3.000000694746470487e+01,1.200000000022754563e+02,-8.680176123136121476e-05
3.000000703768773391e+01,1.200000000023272122e+02,-9.016736605472055815e-05
3.000000712791224800e+01,1.200000000023754865e+02,-9.358000763937517085e-05
3.000000721813139748e+01,1.200000000024366500e+02,-9.773147018944937673e-05
3.000000730834842244e+01,1.200000000024958808e+02,-1.019927643004184546e-04
3.000000739856855247e+01,1.200000000025564191e+02,-1.059632917499471602e-04
3.000000748879298840e+01,1.200000000026165452e+02,-1.101948801461446147e-04
3.000000757901576165e+01,1.200000000026744544e+02,-1.138716653317667392e-04
3.000000766924249973e+01,1.200000000027336426e+02,-1.173995868053320329e-04
3.000000775946472231e+01,1.200000000027981457e+02,-1.203003039876380641e-04
3.000000784968028000e+01,1.200000000028603324e+02,-1.231011519745749052e-04
3.000000793989298487e+01,1.200000000029213112e+02,-1.261605393557793295e-04
3.000000803010625106e+01,1.200000000029953640e+02,-1.283591059827230135e-04
3.000000812032166664e+01,1.200000000030653808e+02,-1.310548453495758987e-04
3.000000821053640010e+01,1.200000000031315466e+02,-1.336129563802649072e-04
3.000000830075224911e+01,1.200000000032006966e+02,-1.352777426886042189e-04
3.000000839097680583e+01,1.200000000032706993e+02,-1.369901181166335814e-04
3.000000848120276231e+01,1.200000000033332697e+02,-1.390798715118842400e-04
3.000000857143312771e+01,1.200000000033996770e+02,-1.413423593600467685e-04
3.000000866166433866e+01,1.200000000034701486e+02,-1.439460235717888016e-04
3.000000875189453708e+01,1.200000000035388581e+02,-1.471190125205681042e-04
3.000000884211505436e+01,1.200000000036161083e+02,-1.504586457539691658e-04
3.000000893233777788e+01,1.200000000036988297e+02,-1.536811852964714391e-04
3.000000902255690249e+01,1.200000000037819774e+02,-1.570645062712735195e-04
3.000000911277330928e+01,1.200000000038690189e+02,-1.608414937663324006e-04
3.000000920298754181e+01,1.200000000039624553e+02,-1.644534977935475180e-04
3.000000929319874032e+01,1.200000000040546126e+02,-1.684899323559470785e-04
3.000000938341171519e+01,1.200000000041501096e+02,-1.727618611740709730e-04
3.000000947361763792e+01,1.200000000042448818e+02,-1.772674001649309449e-04
3.000000956382652362e+01,1.200000000043353481e+02,-1.810280163398619337e-04
3.000000965402950825e+01,1.200000000044211959e+02,-1.856428728310214845e-04
3.000000974422824385e+01,1.200000000045058215e+02,-1.897154801548832153e-04
3.000000983442908975e+01,1.200000000045836259e+02,-1.936353482524557073e-04
3.000000992462892668e+01,1.200000000046629651e+02,-1.968299427001114223e-04
3.000001001483435559e+01,1.200000000047406417e+02,-1.996877720459182314e-04
3.000001010504556476e+01,1.200000000048179203e+02,-2.022056206155973580e-04
3.000001019525809909e+01,1.200000000049033417e+02,-2.051945632406197131e-04
3.000001028547378823e+01,1.200000000049923869e+02,-2.081552087525931349e-04
3.000001037568444673e+01,1.200000000050811479e+02,-2.119175918359938115e-04
3.000001046589797937e+01,1.200000000051694542e+02,-2.157723621663446370e-04
3.000001055611615541e+01,1.200000000052661733e+02,-2.194026700558319434e-04
3.000001064633665493e+01,1.200000000053629918e+02,-2.244002866747573169e-04
3.000001073656195416e+01,1.200000000054590146e+02,-2.288774827452044584e-04
3.000001082678641140e+01,1.200000000055601106e+02,-2.328628389792724153e-04
3.000001091700994849e+01,1.200000000056641198e+02,-2.373575028613918202e-04
3.000001100722969127e+01,1.200000000057744813e+02,-2.419884401126339739e-04
3.000001109744526318e+01,1.200000000058940657e+02,-2.462106323472263553e-04
3.000001118765358044e+01,1.200000000060134226e+02,-2.503110406785325598e-04
3.000001127786339339e+01,1.200000000061259726e+02,-2.542717306719064212e-04
3.000001136806517721e+01,1.200000000062490386e+02,-2.581208544568127337e-04
3.000001145825488891e+01,1.200000000063817396e+02,-2.616826667579706732e-04
3.000001154844262530e+01,1.200000000065095236e+02,-2.663536599606315431e-04
3.000001163863181475e+01,1.200000000066339396e+02,-2.713890083778512283e-04
3.000001172881843914e+01,1.200000000067583841e+02,-2.766157063449990587e-04
3.000001181899675728e+01,1.200000000068782811e+02,-2.812605215217984849e-04
3.000001190917338434e+01,1.200000000069876478e+02,-2.860668594694434994e-04
3.000001199934938612e+01,1.200000000071079000e+02,-2.910721956957461960e-04
3.000001208952690135e+01,1.200000000072261059e+02,-2.957341778368228211e-04
3.000001217970660150e+01,1.200000000073310105e+02,-3.007591865162211400e-04
3.000001226988234393e+01,1.200000000074470421e+02,-3.060575227219176041e-04
3.000001236006567851e+01,1.200000000075672943e+02,-3.114115344813822117e-04
3.000001245024759200e+01,1.200000000076842639e+02,-3.166592851998954977e-04
3.000001254042870613e+01,1.200000000078055820e+02,-3.216540188410352253e-04
3.000001263061374956e+01,1.200000000079341334e+02,-3.266197554799152780e-04
3.000001272079571280e+01,1.200000000080754461e+02,-3.305477570635759915e-04
3.000001281098608530e+01,1.200000000082217753e+02,-3.343821694032941111e-04
3.000001290117067398e+01,1.200000000083694260e+02,-3.373793785217776256e-04
3.000001299134383359e+01,1.200000000085133394e+02,-3.402791653337082847e-04
3.000001308152269175e+01,1.200000000086514262e+02,-3.427841775718683454e-04
3.000001317169598281e+01,1.200000000087851362e+02,-3.451619914962378928e-04
3.000001326186469086e+01,1.200000000089241894e+02,-3.465853224440147966e-04
3.000001335203702268e+01,1.200000000090651611e+02,-3.478595822214543753e-04
3.000001344221069743e+01,1.200000000092029069e+02,-3.482253174105613431e-04
3.000001353237986024e+01,1.200000000093426848e+02,-3.480991551844505650e-04
3.000001362254693760e+01,1.200000000094875077e+02,-3.472818624000927014e-04
3.000001371271098094e+01,1.200000000096330268e+02,-3.465367090495571770e-04
3.000001380287726960e+01,1.200000000097774233e+02,-3.458216523186952705e-04
3.000001389304315325e+01,1.200000000099228572e+02,-3.454850191610721734e-04
3.000001398320615920e+01,1.200000000100662874e+02,-3.451315000022522612e-04
3.000001407337036241e+01,1.200000000102097033e+02,-3.460256721332895312e-04
3.000001416352335326e+01,1.200000000103399458e+02,-3.466824385814660245e-04
3.000001425367274166e+01,1.200000000104781321e+02,-3.474819756268904356e-04
3.000001434381255550e+01,1.200000000106151248e+02,-3.480490126094710991e-04
3.000001443395355238e+01,1.200000000107498010e+02,-3.486856224500898974e-04
3.000001452409633274e+01,1.200000000108854010e+02,-3.482969118330649463e-04
3.000001461424330884e+01,1.200000000110168230e+02,-3.485255274134064878e-04
3.000001470438931861e+01,1.200000000111467386e+02,-3.484510155497197166e-04
3.000001479453473507e+01,1.200000000112786722e+02,-3.480889863662102587e-04
3.000001488467512800e+01,1.200000000114116432e+02,-3.480240586207529463e-04
3.000001497481704149e+01,1.200000000115418430e+02,-3.474031180574721988e-04
3.000001506496024817e+01,1.200000000116677938e+02,-3.469596303354778610e-04
3.000001515510681571e+01,1.200000000117891688e+02,-3.463820807708802778e-04
3.000001524526351204e+01,1.200000000119089236e+02,-3.451145599053942817e-04
3.000001533542225829e+01,1.200000000120348744e+02,-3.439894545704256829e-04
3.000001542557518164e+01,1.200000000121678738e+02,-3.418702757046194313e-04
3.000001551572738023e+01,1.200000000123026069e+02,-3.392025706303120275e-04
3.000001560587861249e+01,1.200000000124471740e+02,-3.361034860908688137e-04
3.000001569602254747e+01,1.200000000125894672e+02,-3.328653994653941995e-04
3.000001578616432951e+01,1.200000000127390223e+02,-3.295656559880296636e-04
3.000001587630957900e+01,1.200000000128844704e+02,-3.274151827190697008e-04
3.000001596645452295e+01,1.200000000130246747e+02,-3.259058027253728036e-04
3.000001605660259330e+01,1.200000000131612836e+02,-3.243318919678673195e-04
3.000001614674648920e+01,1.200000000133036195e+02,-3.226587055129405217e-04
3.000001623688519814e+01,1.200000000134463534e+02,-3.201496633407491244e-04
3.000001632702237941e+01,1.200000000135824365e+02,-3.177744069955276631e-04
3.000001641716553280e+01,1.200000000137131906e+02,-3.156809159687292365e-04
3.000001650730790104e+01,1.200000000138480232e+02,-3.136826648809402040e-04
3.000001659744924964e+01,1.200000000139877159e+02,-3.110515898197180372e-04
3.000001668758902440e+01,1.200000000141199195e+02,-3.071545866777009070e-04
3.000001677773194331e+01,1.200000000142496646e+02,-3.039617350089906275e-04
3.000001686788255384e+01,1.200000000143799213e+02,-3.002480970073285235e-04
3.000001695803263146e+01,1.200000000145058152e+02,-2.971479234539184692e-04
3.000001704818316739e+01,1.200000000146359866e+02,-2.934239179661908667e-04
3.000001713833617245e+01,1.200000000147712029e+02,-2.893601959099041383e-04
3.000001722849356156e+01,1.200000000149054245e+02,-2.839307447970829492e-04
3.000001731864557541e+01,1.200000000150363491e+02,-2.787160937609533531e-04
3.000001740879973511e+01,1.200000000151685384e+02,-2.734553988095231422e-04
3.000001749895061209e+01,1.200000000153080038e+02,-2.685894814904057730e-04
3.000001758910229555e+01,1.200000000154425521e+02,-2.634996563871491075e-04
3.000001767925684248e+01,1.200000000155786211e+02,-2.587410297786255239e-04
3.000001776940916898e+01,1.200000000157118478e+02,-2.535125681781755236e-04
3.000001785956052203e+01,1.200000000158452309e+02,-2.485291902049979566e-04
3.000001794970692615e+01,1.200000000159775766e+02,-2.433456002207033350e-04
3.000001803984301674e+01,1.200000000161128355e+02,-2.382876755035535693e-04
3.000001812998231543e+01,1.200000000162429075e+02,-2.325418914960780583e-04
3.000001822012200847e+01,1.200000000163794454e+02,-2.271494483628671548e-04
3.000001831026129651e+01,1.200000000165165375e+02,-2.217389976387479497e-04
3.000001840040831169e+01,1.200000000166591008e+02,-2.169517812106174393e-04
3.000001849056172887e+01,1.200000000168084142e+02,-2.114790786506663147e-04
3.000001858071878758e+01,1.200000000169520149e+02,-2.064876083794634149e-04
3.000001867087989282e+01,1.200000000170957577e+02,-2.006041704079872875e-04
3.000001876104168019e+01,1.200000000172359762e+02,-1.950907356213870238e-04
3.000001885120635947e+01,1.200000000173820496e+02,-1.898326417257591148e-04
3.000001894137167469e+01,1.200000000175273414e+02,-1.842799851970212965e-04
3.000001903153087568e+01,1.200000000176648740e+02,-1.783723458248579732e-04
3.000001912168712082e+01,1.200000000178014830e+02,-1.717277975455816779e-04
3.000001921183867992e+01,1.200000000179414030e+02,-1.650937228314891352e-04
3.000001930199309896e+01,1.200000000180886417e+02,-1.589694626483315802e-04
3.000001939215576741e+01,1.200000000182334787e+02,-1.531062071972456829e-04
3.000001948231116700e+01,1.200000000183771363e+02,-1.469791962952039040e-04
3.000001957246777806e+01,1.200000000185336120e+02,-1.415992153325266415e-04
3.000001966261742581e+01,1.200000000186867908e+02,-1.361791223137783261e-04
3.000001975276497035e+01,1.200000000188429681e+02,-1.300644699226157874e-04
3.000001984290904034e+01,1.200000000190030960e+02,-1.235048165341513847e-04
3.000001993306077352e+01,1.200000000191641618e+02,-1.163388897470605979e-04
3.000002002320324834e+01,1.200000000193235934e+02,-1.083363368987633229e-04
3.000002011334636265e+01,1.200000000194827976e+02,-1.006257492245403386e-04
3.000002020348737375e+01,1.200000000196432524e+02,-9.294653556875552341e-05
3.000002029362639178e+01,1.200000000198051708e+02,-8.453352140771737497e-05
3.000002038376169367e+01,1.200000000199716794e+02,-7.608800817723267499e-05
3.000002047389440918e+01,1.200000000201452650e+02,-6.668730880373707791e-05
3.000002056402651007e+01,1.200000000203197175e+02,-5.763204585570030631e-05
3.000002065415645092e+01,1.200000000204892245e+02,-4.928244893569868137e-05
3.000002074428265075e+01,1.200000000206647428e+02,-4.059757176192109777e-05
3.000002083441233225e+01,1.200000000208405879e+02,-3.163363592544551521e-05
3.000002092454107228e+01,1.200000000210172715e+02,-2.230522547062616887e-05
3.000002101467719484e+01,1.200000000211869349e+02,-1.363929445801858392e-05
3.000002110480831874e+01,1.200000000213572093e+02,-4.635980599700796720e-06
3.000002119493914066e+01,1.200000000215253806e+02,4.678866026792088042e-06
3.000002128507318488e+01,1.200000000216937366e+02,1.419047874947333791e-05
3.000002137521310530e+01,1.200000000218720828e+02,2.382747590632976664e-05
3.000002146535361902e+01,1.200000000220565823e+02,3.308453888760035908e-05
3.000002155549165295e+01,1.200000000222397034e+02,4.219498357728555945e-05
3.000002164563468554e+01,1.200000000224266614e+02,5.090053928100243992e-05
3.000002173577100706e+01,1.200000000226264376e+02,5.941846309281605348e-05
3.000002182590997535e+01,1.200000000228386909e+02,6.723984828232987526e-05
3.000002191605377178e+01,1.200000000230498074e+02,7.544635224847074393e-05
3.000002200619017501e+01,1.200000000232583943e+02,8.328558035867291624e-05
3.000002209632277683e+01,1.200000000234641391e+02,9.081780152428910061e-05
3.000002218645364493e+01,1.200000000236637305e+02,9.855902111273203532e-05
3.000002227658696441e+01,1.200000000238638762e+02,1.061742238165695024e-04
3.000002236671958400e+01,1.200000000240598723e+02,1.136628063303661074e-04
3.000002245684961011e+01,1.200000000242588243e+02,1.212015469973345874e-04
3.000002254697628601e+01,1.200000000244538256e+02,1.294209830559522520e-04
3.000002263710764794e+01,1.200000000246379983e+02,1.384716294807439611e-04
3.000002272723186536e+01,1.200000000248183625e+02,1.477851906073703774e-04
3.000002281736017196e+01,1.200000000249965808e+02,1.580985298143399321e-04
3.000002290747888622e+01,1.200000000251719001e+02,1.674747133677789680e-04
3.000002299759880842e+01,1.200000000253507153e+02,1.767072954789526533e-04
3.000002308771557580e+01,1.200000000255333106e+02,1.850186313710265151e-04
3.000002317783561168e+01,1.200000000257203254e+02,1.925842074203220592e-04
3.000002326796129282e+01,1.200000000258996096e+02,2.000494713204993070e-04
3.000002335808603604e+01,1.200000000260830859e+02,2.069354057399308262e-04
3.000002344820679312e+01,1.200000000262605653e+02,2.141850770208997051e-04
3.000002353832779889e+01,1.200000000264296318e+02,2.216761713719543571e-04
3.000002362844245951e+01,1.200000000265980304e+02,2.285681650491269104e-04
