pos_lat (deg),pos_lon (deg),pos_alt (m)
3.028000000000000114e+01,1.199999999999999858e+02,0.000000000000000000e+00
3.028000018041231911e+01,1.199999999999999858e+02,0.000000000000000000e+00
3.028000036082612212e+01,1.200000000000042917e+02,6.429672218282650369e-09
3.028000054124281348e+01,1.200000000000016485e+02,-1.859503564348304930e-07
3.028000072166868506e+01,1.200000000000049596e+02,-9.544114908555861135e-08
3.028000090209595996e+01,1.200000000000051870e+02,-3.770956434054680339e-07
3.028000108252790312e+01,1.200000000000036522e+02,-1.368413397490872636e-06
3.028000126297194683e+01,1.200000000000089670e+02,-2.275139983705145102e-06
3.028000144341518407e+01,1.200000000000146230e+02,-3.748565977396734271e-06
3.028000162385897909e+01,1.200000000000206768e+02,-5.314647122921055530e-06
3.028000180429542709e+01,1.200000000000235474e+02,-8.238483998373104204e-06
3.028000198473277393e+01,1.200000000000304681e+02,-1.151079541784726310e-05
3.028000216516954524e+01,1.200000000000255937e+02,-1.515511151063614504e-05
3.028000234560021298e+01,1.200000000000167830e+02,-1.892549491882627798e-05
3.028000252602979714e+01,1.200000000000077449e+02,-2.285835620936289966e-05
3.028000270645459580e+01,1.199999999999886171e+02,-2.670514032318032757e-05
3.028000288688048514e+01,1.199999999999698161e+02,-2.981865360024748681e-05
3.028000306730496405e+01,1.199999999999635776e+02,-3.423843027284418901e-05
3.028000324772287044e+01,1.199999999999617444e+02,-3.870269038357113567e-05
3.028000342814321044e+01,1.199999999999611049e+02,-4.227739034409493969e-05
3.028000360856081841e+01,1.199999999999672156e+02,-4.627307009040492467e-05
3.028000378898175882e+01,1.199999999999786411e+02,-4.948995286256960253e-05
3.028000396940842975e+01,1.199999999999904503e+02,-5.296145980373546112e-05
3.028000414983329946e+01,1.200000000000009805e+02,-5.679433884113508729e-05
3.028000433025912486e+01,1.200000000000121787e+02,-6.115747559327636064e-05
3.028000451068333021e+01,1.200000000000280238e+02,-6.573874687120030203e-05
3.028000469110774162e+01,1.200000000000563745e+02,-7.024686556820442331e-05
3.028000487153260778e+01,1.200000000000877236e+02,-7.454911979588175867e-05
3.028000505195843672e+01,1.200000000001202380e+02,-7.898943114760139772e-05
3.028000523238319985e+01,1.200000000001546425e+02,-8.431185426123816357e-05
3.028000541280673019e+01,1.200000000001872138e+02,-8.944588361851347721e-05
3.028000559322516949e+01,1.200000000002223715e+02,-9.489209382336922507e-05
3.028000577363387791e+01,1.200000000002589928e+02,-1.005421683075318390e-04
3.028000595404600048e+01,1.200000000002913083e+02,-1.064768175282452840e-04
3.028000613446006639e+01,1.200000000003204832e+02,-1.119020236289968307e-04
3.028000631487841687e+01,1.200000000003399236e+02,-1.174924063397559570e-04
3.028000649529428046e+01,1.200000000003582556e+02,-1.219178191993364229e-04
3.028000667570854887e+01,1.200000000003752660e+02,-1.262376500565982765e-04
3.028000685611609200e+01,1.200000000003826273e+02,-1.304665936648387856e-04
3.028000703652490699e+01,1.200000000003872032e+02,-1.345871543636755461e-04
3.028000721693512887e+01,1.200000000003860805e+02,-1.385232955310265594e-04
3.028000739734368452e+01,1.200000000003847589e+02,-1.421990693112326143e-04
3.028000757775097185e+01,1.200000000003876579e+02,-1.453055219000887980e-04
3.028000775815819168e+01,1.200000000003904148e+02,-1.485397050254049682e-04
3.028000793856562112e+01,1.200000000003933565e+02,-1.524959255903638171e-04
3.028000811896981759e+01,1.200000000003978471e+02,-1.573532838232109419e-04
3.028000829937520422e+01,1.200000000004040999e+02,-1.613699707677788454e-04
3.028000847978379184e+01,1.200000000004144596e+02,-1.659799621515892676e-04
3.028000866019268855e+01,1.200000000004304326e+02,-1.709420024712293479e-04
3.028000884060017128e+01,1.200000000004511946e+02,-1.756001651502604776e-04
3.028000902101166858e+01,1.200000000004673240e+02,-1.801855047618585825e-04
3.028000920141434094e+01,1.200000000004861391e+02,-1.847204204379578659e-04
3.028000938181140711e+01,1.200000000005010747e+02,-1.896480591946961259e-04
3.028000956220535045e+01,1.200000000005164367e+02,-1.944839031120868921e-04
3.028000974260256939e+01,1.200000000005360477e+02,-1.990125976160924206e-04
3.028000992300083283e+01,1.200000000005604619e+02,-2.029151806924504409e-04
3.028001010339948351e+01,1.200000000005912142e+02,-2.070134158260748044e-04
3.028001028380417026e+01,1.200000000006258176e+02,-2.108502801348337351e-04
3.028001046421423226e+01,1.200000000006562857e+02,-2.147330877784924474e-04
3.028001064462095471e+01,1.200000000006829737e+02,-2.178241044731173658e-04
3.028001082502963826e+01,1.200000000007104006e+02,-2.215406469470065692e-04
3.028001100543377788e+01,1.200000000007462830e+02,-2.251567459691604497e-04
3.028001118583706841e+01,1.200000000007851781e+02,-2.284886118852047477e-04
3.028001136624226319e+01,1.200000000008138841e+02,-2.319432813364732677e-04
3.028001154665569672e+01,1.200000000008464269e+02,-2.352252806158765762e-04
3.028001172706485633e+01,1.200000000008812862e+02,-2.369838158184726094e-04
3.028001190747704285e+01,1.200000000009140848e+02,-2.382111193685414457e-04
3.028001208789398291e+01,1.200000000009473098e+02,-2.401668896095897603e-04
3.028001226830660286e+01,1.200000000009812879e+02,-2.420534538095506694e-04
3.028001244871861886e+01,1.200000000010225278e+02,-2.437623583958126899e-04
3.028001262912539104e+01,1.200000000010618066e+02,-2.455847432220562444e-04
3.028001280952693008e+01,1.200000000010963674e+02,-2.465547396049306964e-04
3.028001298993105195e+01,1.200000000011306867e+02,-2.478996659444705677e-04
3.028001317033393747e+01,1.200000000011712302e+02,-2.493281100996642442e-04
3.028001335073167866e+01,1.200000000012102817e+02,-2.504230166890535113e-04
3.028001353113365113e+01,1.200000000012546622e+02,-2.519539079719214630e-04
3.028001371153069954e+01,1.200000000012976074e+02,-2.536574376183694537e-04
3.028001389192796822e+01,1.200000000013396431e+02,-2.548013602713537946e-04
3.028001407233301734e+01,1.200000000013874057e+02,-2.563508087922926034e-04
3.028001425274073455e+01,1.200000000014395170e+02,-2.583220873729989296e-04
3.028001443314267860e+01,1.200000000014832011e+02,-2.593905045181621872e-04
3.028001461353678181e+01,1.200000000015334507e+02,-2.601199116874065658e-04
3.028001479393616435e+01,1.200000000015949269e+02,-2.598674022359252289e-04
3.028001497434222600e+01,1.200000000016603963e+02,-2.594279962984120513e-04
3.028001515474779026e+01,1.200000000017317916e+02,-2.597076896425488230e-04
3.028001533515318400e+01,1.200000000018026327e+02,-2.604723609846413580e-04
3.028001551555314563e+01,1.200000000018727206e+02,-2.609385136803582875e-04
3.028001569595079090e+01,1.200000000019368969e+02,-2.620377350732323841e-04
3.028001587635997538e+01,1.200000000020024942e+02,-2.631728790157327001e-04
3.028001605677322416e+01,1.200000000020597213e+02,-2.645492252186658648e-04
3.028001623718536806e+01,1.200000000021088056e+02,-2.655779239887504431e-04
3.028001641759079732e+01,1.200000000021602489e+02,-2.666363646399391740e-04
3.028001659799651790e+01,1.200000000022084095e+02,-2.677822790206273412e-04
3.028001677840444827e+01,1.200000000022545237e+02,-2.688301433345771847e-04
3.028001695880872290e+01,1.200000000023077718e+02,-2.699294373423122371e-04
3.028001713920739846e+01,1.200000000023654820e+02,-2.713829570594369347e-04
3.028001731960749865e+01,1.200000000024256792e+02,-2.733323431924809897e-04
3.028001750001067194e+01,1.200000000024928823e+02,-2.758106672832111392e-04
3.028001768041607278e+01,1.200000000025654714e+02,-2.785459176224587552e-04
3.028001786082386459e+01,1.200000000026375915e+02,-2.814914142641479749e-04
3.028001804123761076e+01,1.200000000027122127e+02,-2.846505798166116142e-04
3.028001822164555534e+01,1.200000000027822580e+02,-2.884732809029769054e-04
3.028001840205918427e+01,1.200000000028556713e+02,-2.915650087915039605e-04
3.028001858247125000e+01,1.200000000029220359e+02,-2.944695307822474211e-04
3.028001876288221084e+01,1.200000000029862974e+02,-2.976289293378631519e-04
3.028001894329437249e+01,1.200000000030476741e+02,-3.007280275206526384e-04
3.028001912371425064e+01,1.200000000031044181e+02,-3.042239540124684746e-04
3.028001930413723741e+01,1.200000000031683101e+02,-3.072594225128176407e-04
3.028001948456730119e+01,1.200000000032305252e+02,-3.106064196312347632e-04
3.028001966499711983e+01,1.200000000032975578e+02,-3.142584932763279725e-04
3.028001984542390090e+01,1.200000000033655994e+02,-3.184143658033092923e-04
3.028002002585336427e+01,1.200000000034292071e+02,-3.220116670228130996e-04
3.028002020628679603e+01,1.200000000034888501e+02,-3.253260608781656494e-04
3.028002038672913088e+01,1.200000000035435335e+02,-3.287114785370281230e-04
3.028002056717945578e+01,1.200000000036031054e+02,-3.324210545020661167e-04
3.028002074763123019e+01,1.200000000036623646e+02,-3.354651270020163941e-04
3.028002092808083390e+01,1.200000000037231160e+02,-3.387964461132536380e-04
3.028002110853314122e+01,1.200000000037856154e+02,-3.423273745398923906e-04
3.028002128898751977e+01,1.200000000038508858e+02,-3.462900520997344318e-04
3.028002146944159989e+01,1.200000000039102446e+02,-3.508590858050031542e-04
3.028002164990303058e+01,1.200000000039709818e+02,-3.565472704342548239e-04
3.028002183037060391e+01,1.200000000040342627e+02,-3.625147303995248033e-04
3.028002201083930345e+01,1.200000000041017927e+02,-3.688185609387630275e-04
3.028002219130935657e+01,1.200000000041630557e+02,-3.752879438655581674e-04
3.028002237178636236e+01,1.200000000042222865e+02,-3.820983992785343211e-04
3.028002255226205364e+01,1.200000000042707882e+02,-3.902299538838481237e-04
3.028002273273725820e+01,1.200000000043137902e+02,-3.991302053885177527e-04
3.028002291320899886e+01,1.200000000043528274e+02,-4.078252585695782439e-04
3.028002309368479672e+01,1.200000000043951616e+02,-4.161346026436039350e-04
3.028002327416271555e+01,1.200000000044419721e+02,-4.239660138590492836e-04
3.028002345464369682e+01,1.200000000044839936e+02,-4.323929729637566305e-04
3.028002363512388584e+01,1.200000000045217234e+02,-4.402136102800134902e-04
3.028002381560481737e+01,1.200000000045628212e+02,-4.481053484625453515e-04
3.028002399608318385e+01,1.200000000046055391e+02,-4.556998645837472624e-04
3.028002417656652057e+01,1.200000000046455284e+02,-4.635124089087770270e-04
3.028002435705226247e+01,1.200000000046864699e+02,-4.714771142921454490e-04
3.028002453754134748e+01,1.200000000047272408e+02,-4.791001830657619755e-04
3.028002471803376139e+01,1.200000000047704702e+02,-4.857828372227548605e-04
3.028002489851536083e+01,1.200000000048133444e+02,-4.925175777057952441e-04
3.028002507899525497e+01,1.200000000048467257e+02,-4.996326777386870741e-04
3.028002525947544754e+01,1.200000000048742805e+02,-5.075468563495665573e-04
3.028002543995571116e+01,1.200000000049003575e+02,-5.150976309929878455e-04
3.028002562043325341e+01,1.200000000049270028e+02,-5.221833128020311960e-04
3.028002580091038709e+01,1.200000000049554956e+02,-5.297974126989237918e-04
3.028002598138417056e+01,1.200000000049905395e+02,-5.376479633984286707e-04
3.028002616186318718e+01,1.200000000050235656e+02,-5.464307565431668562e-04
3.028002634234135826e+01,1.200000000050434039e+02,-5.554365596842713399e-04
3.028002652282123819e+01,1.200000000050677329e+02,-5.646816042469219579e-04
3.028002670330404200e+01,1.200000000050960836e+02,-5.748171264531203636e-04
3.028002688378790452e+01,1.200000000051188493e+02,-5.850827028796050031e-04
3.028002706427182034e+01,1.200000000051474274e+02,-5.953434357880224440e-04
3.028002724476473517e+01,1.200000000051751812e+02,-6.062473963313664595e-04
3.028002742525534430e+01,1.200000000051993112e+02,-6.169570197352024134e-04
3.028002760575343189e+01,1.200000000052249334e+02,-6.283746662231398184e-04
3.028002778625213409e+01,1.200000000052516498e+02,-6.397915297023273710e-04
3.028002796675112052e+01,1.200000000052746429e+02,-6.512537247345032794e-04
3.028002814725489955e+01,1.200000000052966271e+02,-6.626107027915521678e-04
3.028002832776051889e+01,1.200000000053212830e+02,-6.754693628983828328e-04
3.028002850826172931e+01,1.200000000053410645e+02,-6.880308626894104246e-04
3.028002868876613363e+01,1.200000000053514952e+02,-7.005111408943378790e-04
3.028002886927145454e+01,1.200000000053556874e+02,-7.141145256899322996e-04
3.028002904977987697e+01,1.200000000053596807e+02,-7.277688523905836288e-04
3.028002923029137605e+01,1.200000000053716889e+02,-7.413207885616239414e-04
3.028002941081224364e+01,1.200000000053810822e+02,-7.542053738692984554e-04
3.028002959133124961e+01,1.200000000053877187e+02,-7.671769022822337927e-04
3.028002977184377897e+01,1.200000000053902482e+02,-7.798397806551672987e-04
3.028002995235535977e+01,1.200000000054033933e+02,-7.918627515135671447e-04
3.028003013287383993e+01,1.200000000054191531e+02,-8.040887359610455814e-04
3.028003031339020978e+01,1.200000000054343872e+02,-8.149823884515689908e-04
3.028003049390843415e+01,1.200000000054458837e+02,-8.257714118883922004e-04
3.028003067442970320e+01,1.200000000054612315e+02,-8.370838091714615740e-04
3.028003085494906088e+01,1.200000000054752007e+02,-8.484514546935315905e-04
3.028003103547510477e+01,1.200000000054961902e+02,-8.600208003649101665e-04
3.028003121601052072e+01,1.200000000055221960e+02,-8.711736593981105926e-04
3.028003139654181908e+01,1.200000000055496514e+02,-8.822725762239654870e-04
3.028003157706907800e+01,1.200000000055714082e+02,-8.939308492137946907e-04
3.028003175759116061e+01,1.200000000055924971e+02,-9.053384319739157284e-04
3.028003193810562976e+01,1.200000000056087828e+02,-9.165523763440731496e-04
3.028003211862344912e+01,1.200000000056306391e+02,-9.276266486832726501e-04
3.028003229914444105e+01,1.200000000056547407e+02,-9.374839017631268669e-04
3.028003247966027089e+01,1.200000000056803344e+02,-9.483869839362993629e-04
3.028003266018115625e+01,1.200000000057047345e+02,-9.587451325390334558e-04
3.028003284070339163e+01,1.200000000057345062e+02,-9.693146010940391095e-04
3.028003302122536411e+01,1.200000000057641216e+02,-9.797653709542400446e-04
3.028003320174574142e+01,1.200000000057910370e+02,-9.921510398542209789e-04
3.028003338227308916e+01,1.200000000058201266e+02,-1.005450816286357048e-03
3.028003356280108704e+01,1.200000000058440150e+02,-1.019402679046738092e-03
3.028003374332687869e+01,1.200000000058697651e+02,-1.032531180410776756e-03
3.028003392385343773e+01,1.200000000058990253e+02,-1.045847413738416063e-03
3.028003410438320486e+01,1.200000000059326197e+02,-1.059094332454108955e-03
3.028003428490966797e+01,1.200000000059690990e+02,-1.072307594722582153e-03
3.028003446543467447e+01,1.200000000060055640e+02,-1.084655286981324029e-03
3.028003464595220962e+01,1.200000000060536536e+02,-1.096460938859040264e-03
3.028003482646819577e+01,1.200000000061009757e+02,-1.108496894607526343e-03
3.028003500698977390e+01,1.200000000061463226e+02,-1.120466429827576393e-03
3.028003518751514633e+01,1.200000000061805991e+02,-1.132654418659728712e-03
3.028003536804062534e+01,1.200000000062163537e+02,-1.144421278983726812e-03
3.028003554856573487e+01,1.200000000062577641e+02,-1.155619048468602052e-03
3.028003572909063834e+01,1.200000000062942291e+02,-1.167384989446426094e-03
3.028003590961714764e+01,1.200000000063364496e+02,-1.178062241046267267e-03
3.028003609014266573e+01,1.200000000063852781e+02,-1.189102687777736280e-03
3.028003627066124892e+01,1.200000000064454042e+02,-1.200643147666183687e-03
3.028003645117976106e+01,1.200000000065032850e+02,-1.212947282122043636e-03
3.028003663170539994e+01,1.200000000065698202e+02,-1.224634392537532479e-03
3.028003681223394850e+01,1.200000000066379329e+02,-1.235957402337600503e-03
3.028003699275939198e+01,1.200000000066997927e+02,-1.247380297238866740e-03
3.028003717328231659e+01,1.200000000067624057e+02,-1.258319138580810603e-03
3.028003735381588157e+01,1.200000000068318968e+02,-1.269067252050348499e-03
3.028003753435128331e+01,1.200000000068998816e+02,-1.279912070579936880e-03
3.028003771489057172e+01,1.200000000069673689e+02,-1.291162420938228280e-03
3.028003789542708546e+01,1.200000000070260455e+02,-1.302875195245131908e-03
3.028003807596541463e+01,1.200000000070905628e+02,-1.314205809448485600e-03
3.028003825650945302e+01,1.200000000071551653e+02,-1.326004897259638535e-03
3.028003843704890841e+01,1.200000000072236901e+02,-1.336940463303373317e-03
3.028003861758972448e+01,1.200000000072968191e+02,-1.347451290745194357e-03
3.028003879812462174e+01,1.200000000073611375e+02,-1.358057209812956259e-03
3.028003897866509320e+01,1.200000000074269479e+02,-1.368830419279740401e-03
3.028003915921184586e+01,1.200000000074961264e+02,-1.378975220230682598e-03
3.028003933976135542e+01,1.200000000075692839e+02,-1.388498196243352243e-03
3.028003952031570023e+01,1.200000000076395850e+02,-1.398660443290456997e-03
3.028003970086317409e+01,1.200000000077056654e+02,-1.409820880737221649e-03
3.028003988140626745e+01,1.200000000077663458e+02,-1.420596404657110002e-03
3.028004006194752051e+01,1.200000000078261166e+02,-1.431713533049321519e-03
3.028004024249064585e+01,1.200000000078871238e+02,-1.442765591621167787e-03
3.028004042302445953e+01,1.200000000079462836e+02,-1.454118673887929954e-03
3.028004060356356320e+01,1.200000000079989348e+02,-1.465068624421917310e-03
3.028004078410853595e+01,1.200000000080479623e+02,-1.475911278906020781e-03
3.028004096466305484e+01,1.200000000081014804e+02,-1.486394011009237398e-03
3.028004114522656565e+01,1.200000000081483904e+02,-1.497466004103090945e-03
3.028004132579193453e+01,1.200000000081910940e+02,-1.508691654236326944e-03
3.028004150635847935e+01,1.200000000082453369e+02,-1.519748292340723046e-03
3.028004168691534304e+01,1.200000000082972491e+02,-1.531392840889144900e-03
3.028004186747169868e+01,1.200000000083511367e+02,-1.542886310397382534e-03
3.028004204802407173e+01,1.200000000084091738e+02,-1.554719032152618004e-03
3.028004222857303063e+01,1.200000000084671115e+02,-1.567506348138312643e-03
3.028004240912277112e+01,1.200000000085337035e+02,-1.580439610728624029e-03
3.028004258967393625e+01,1.200000000085954071e+02,-1.592656809758211242e-03
3.028004277022917634e+01,1.200000000086601517e+02,-1.605165217489936411e-03
3.028004295078966734e+01,1.200000000087224947e+02,-1.618301685057208167e-03
3.028004313134342596e+01,1.200000000087918863e+02,-1.631404112424646126e-03
3.028004331189743326e+01,1.200000000088645749e+02,-1.645943096128974110e-03
3.028004349244555726e+01,1.200000000089361265e+02,-1.660509957582685572e-03
3.028004367299509525e+01,1.200000000090045518e+02,-1.675463375854887010e-03
3.028004385355072614e+01,1.200000000090748529e+02,-1.689942650564061006e-03
3.028004403410198364e+01,1.200000000091467314e+02,-1.705280645545472320e-03
3.028004421465456986e+01,1.200000000092111065e+02,-1.719903944914998083e-03
3.028004439520728042e+01,1.200000000092749275e+02,-1.734019219589247231e-03
3.028004457576113495e+01,1.200000000093388905e+02,-1.748325373625192209e-03
3.028004475631666281e+01,1.200000000093954213e+02,-1.761993757345326319e-03
3.028004493687254239e+01,1.200000000094480157e+02,-1.775276272545875736e-03
3.028004511742794236e+01,1.200000000094987058e+02,-1.788778582408399051e-03
3.028004529798317890e+01,1.200000000095483443e+02,-1.802369744482647902e-03
3.028004547854390793e+01,1.200000000096080441e+02,-1.815500399249988161e-03
3.028004565910615042e+01,1.200000000096690798e+02,-1.827868493238266273e-03
3.028004583967218011e+01,1.200000000097265342e+02,-1.840044640370487204e-03
3.028004602023994707e+01,1.200000000097807060e+02,-1.852094797239158897e-03
3.028004620080808351e+01,1.200000000098358441e+02,-1.864530451863469478e-03
3.028004638137889515e+01,1.200000000098882822e+02,-1.877027363091652743e-03
3.028004656194578104e+01,1.200000000099381339e+02,-1.888504885199145805e-03
3.028004674251206296e+01,1.200000000099966542e+02,-1.900618321530092233e-03
3.028004692307435519e+01,1.200000000100546629e+02,-1.912266759721060940e-03
3.028004710363449448e+01,1.200000000101101136e+02,-1.924105270525447919e-03
