ref_pos_lat (deg),ref_pos_lon (deg),ref_pos_alt (m)
2.999999999999999645e+01,1.199999999999999858e+02,0.000000000000000000e+00
2.999999994051590235e+01,1.200000003875812382e+02,9.250966675240081261e-02
2.999999987238591359e+01,1.200000007902673786e+02,1.843429537447301425e-01
2.999999979608647749e+01,1.200000012062442636e+02,2.755436057113216375e-01
2.999999971212705319e+01,1.200000016339256632e+02,3.661556661632996423e-01
2.999999962102980078e+01,1.200000020719247118e+02,4.562225267176896470e-01
2.999999952331497610e+01,1.200000025190286834e+02,5.457862542004833228e-01
2.999999941949052129e+01,1.200000029741763683e+02,6.348871313321378107e-01
2.999999931004504461e+01,1.200000034364383907e+02,7.235633604620482773e-01
2.999999919544320903e+01,1.200000039049999430e+02,8.118508906977274231e-01
2.999999907612294336e+01,1.200000043791458637e+02,8.997833374141365193e-01
2.999999895249406379e+01,1.200000048582475927e+02,9.873919699725030030e-01
2.999999882493786885e+01,1.200000053417519581e+02,1.074705748887271994e+00
2.999999869380742723e+01,1.200000058291715135e+02,1.161751397946445108e+00
2.999999855942843396e+01,1.200000063200760962e+02,1.248553500149023554e+00
2.999999842210028334e+01,1.200000068140856513e+02,1.335134608961285885e+00
2.999999828209748642e+01,1.200000073108638645e+02,1.421515368460958495e+00
2.999999813967111706e+01,1.200000078101128480e+02,1.507714637554182335e+00
2.999999799505037146e+01,1.200000083115683367e+02,1.593749614709283557e+00
2.999999784844409234e+01,1.200000088149957378e+02,1.679635960628918401e+00
2.999999770004232147e+01,1.200000093201864644e+02,1.765387917037805066e+00
2.999999755001775270e+01,1.200000098269549369e+02,1.851018420344239468e+00
2.999999739852713887e+01,1.200000103351358405e+02,1.936539209377332593e+00
2.999999724571263826e+01,1.200000108445817943e+02,2.021960926738015196e+00
2.999999709170304385e+01,1.200000113551613765e+02,2.107293213553773192e+00
2.999999693661498057e+01,1.200000118667571627e+02,2.192544797613295682e+00
2.999999678055394625e+01,1.200000123792642057e+02,2.277723574992393640e+00
2.999999662361536323e+01,1.200000128925887992e+02,2.362836685378193025e+00
2.999999646588547009e+01,1.200000134066469286e+02,2.447890581363832307e+00
2.999999630744214940e+01,1.200000139213635606e+02,2.532891092027844238e+00
2.999999614835575912e+01,1.200000144366714068e+02,2.617843481136716832e+00
2.999999598868980755e+01,1.200000149525101705e+02,2.702752500320175777e+00
2.999999582850160351e+01,1.200000154688258220e+02,2.787622437569992950e+00
2.999999566784283900e+01,1.200000159855699309e+02,2.872457161407244275e+00
2.999999550676015403e+01,1.200000165026990402e+02,2.957260161052015057e+00
2.999999534529558787e+01,1.200000170201741128e+02,3.042034582915168262e+00
2.999999518348706218e+01,1.200000175379601899e+02,3.126783263715199990e+00
2.999999502136873986e+01,1.200000180560258087e+02,3.211508760505291438e+00
2.999999485897142293e+01,1.200000185743427750e+02,3.296213377877192929e+00
2.999999469632286164e+01,1.200000190928857222e+02,3.380899192590002489e+00
2.999999453344807065e+01,1.200000196116318705e+02,3.465568075853644014e+00
2.999999437036956351e+01,1.200000201305607987e+02,3.550221713479157604e+00
2.999999420710763687e+01,1.200000206496540613e+02,3.634861624090989896e+00
2.999999404368058009e+01,1.200000211688951595e+02,3.719489175580405149e+00
2.999999388010484935e+01,1.200000216882692001e+02,3.804105599964031637e+00
2.999999371639527013e+01,1.200000222077628962e+02,3.888712006797418574e+00
2.999999355256518996e+01,1.200000227273641542e+02,3.973309395280319123e+00
2.999999338862663478e+01,1.200000232470622308e+02,4.057898665178234054e+00
2.999999322459043682e+01,1.200000237668473915e+02,4.142480626673489041e+00
2.999999306046633407e+01,1.200000242867108824e+02,4.227056009248769008e+00
2.999999289626311239e+01,1.200000248066448876e+02,4.311625469696515722e+00
2.999999273198865879e+01,1.200000253266423158e+02,4.396189599338905296e+00
2.999999256765010003e+01,1.200000258466968006e+02,4.480748930535151331e+00
2.999999240325383099e+01,1.200000263668026577e+02,4.565303942545630100e+00
2.999999223880562482e+01,1.200000268869546858e+02,4.649855066815710813e+00
2.999999207431065429e+01,1.200000274071483233e+02,4.734402691736152136e+00
2.999999190977361607e+01,1.200000279273793353e+02,4.818947166931473625e+00
2.999999174519869527e+01,1.200000284476440413e+02,4.903488807122736048e+00
2.999999158058967907e+01,1.200000289679390164e+02,4.988027895606677475e+00
2.999999141594998520e+01,1.200000294882612764e+02,5.072564687389063742e+00
2.999999125128266897e+01,1.200000300086080642e+02,5.157099412006431294e+00
2.999999108659050151e+01,1.200000305289769074e+02,5.241632276067052842e+00
2.999999092187595906e+01,1.200000310493656315e+02,5.326163465538940045e+00
2.999999075714127983e+01,1.200000315697722328e+02,5.410693147809960024e+00
2.999999059238848531e+01,1.200000320901949209e+02,5.495221473542686752e+00
2.999999042761936963e+01,1.200000326106320614e+02,5.579748578344362997e+00
2.999999026283558479e+01,1.200000331310822617e+02,5.664274584270360791e+00
2.999999009803857675e+01,1.200000336515441717e+02,5.748799601177683627e+00
2.999998993322968488e+01,1.200000341720166404e+02,5.833323727943443338e+00
2.999998976841008869e+01,1.200000346924985877e+02,5.917847053561742676e+00
2.999998960358086464e+01,1.200000352129890757e+02,6.002369658131086361e+00
2.999998943874296842e+01,1.200000357334872518e+02,6.086891613743213192e+00
2.999998927389727399e+01,1.200000362539923628e+02,6.171412985283188490e+00
2.999998910904455229e+01,1.200000367745036982e+02,6.255933831149596003e+00
2.999998894418552098e+01,1.200000372950206042e+02,6.340454203902800678e+00
2.999998877932079466e+01,1.200000378155425693e+02,6.424974150848459686e+00
2.999998861445095244e+01,1.200000383360690819e+02,6.509493714562740507e+00
2.999998844957650590e+01,1.200000388565996730e+02,6.594012933365065443e+00
2.999998828469791334e+01,1.200000393771339304e+02,6.678531841743620134e+00
2.999998811981559399e+01,1.200000398976714990e+02,6.763050470738344089e+00
2.999998795492990666e+01,1.200000404182120235e+02,6.847568848285646048e+00
2.999998779004120664e+01,1.200000409387552338e+02,6.932086999528668692e+00
2.999998762514978168e+01,1.200000414593008458e+02,7.016604947096544365e+00
2.999998746025591601e+01,1.200000419798486462e+02,7.101122711355738026e+00
2.999998729535984765e+01,1.200000425003983793e+02,7.185640310636268069e+00
2.999998713046179688e+01,1.200000430209498319e+02,7.270157761435313226e+00
2.999998696556195554e+01,1.200000435415029045e+02,7.354675078600463323e+00
2.999998680066051904e+01,1.200000440620573983e+02,7.439192275494656670e+00
2.999998663575763302e+01,1.200000445826131283e+02,7.523709364144622214e+00
2.999998647085345027e+01,1.200000451031700379e+02,7.608226355374487326e+00
2.999998630594809512e+01,1.200000456237279565e+02,7.692743258926022065e+00
2.999998614104169192e+01,1.200000461442868271e+02,7.777260083566864601e+00
2.999998597613434015e+01,1.200000466648465078e+02,7.861776837187925970e+00
2.999998581122613572e+01,1.200000471854069417e+02,7.946293526891057724e+00
2.999998564631716746e+01,1.200000477059680719e+02,8.030810159067948817e+00
2.999998548140750643e+01,1.200000482265297990e+02,8.115326739471139916e+00
2.999998531649722722e+01,1.200000487470920660e+02,8.199843273277933164e+00
2.999998515158639023e+01,1.200000492676548021e+02,8.284359765147913279e+00
2.999998498667504876e+01,1.200000497882180213e+02,8.368876219274717698e+00
2.999998482176325609e+01,1.200000503087815957e+02,8.453392639432628641e+00
2.999998465685105842e+01,1.200000508293455397e+02,8.537909029018504015e+00
2.999998449193849481e+01,1.200000513499098105e+02,8.622425391089524993e+00
2.999998432702560436e+01,1.200000518704743513e+02,8.706941728397158187e+00
2.999998416211241903e+01,1.200000523910391621e+02,8.791458043417726742e+00
2.999998399719896724e+01,1.200000529116041861e+02,8.875974338379924333e+00
2.999998383228527388e+01,1.200000534321694374e+02,8.960490615289577576e+00
2.999998366737136024e+01,1.200000539527348735e+02,9.045006875951932201e+00
2.999998350245726186e+01,1.200000544733004517e+02,9.129523121991713452e+00
2.999998333754298940e+01,1.200000549938661862e+02,9.214039354871172094e+00
2.999998317262855707e+01,1.200000555144320771e+02,9.298555575906334525e+00
2.999998300771398974e+01,1.200000560349980674e+02,9.383071786281629301e+00
2.999998284279929095e+01,1.200000565555641572e+02,9.467587987063039279e+00
2.999998267788448558e+01,1.200000570761303607e+02,9.552104179209949919e+00
2.999998251296957008e+01,1.200000575966966210e+02,9.636620363585809201e+00
2.999998234805456931e+01,1.200000581172629666e+02,9.721136540967721729e+00
2.999998218313948328e+01,1.200000586378293974e+02,9.805652712055080045e+00
2.999998201822432620e+01,1.200000591583958709e+02,9.890168877477339748e+00
2.999998185330909806e+01,1.200000596789623870e+02,9.974685037801009457e+00
2.999998168839382018e+01,1.200000601995289742e+02,1.005920119353594799e+01
2.999998152347848190e+01,1.200000607200955898e+02,1.014371734514102741e+01
2.999998135856310100e+01,1.200000612406622480e+02,1.022823349302923290e+01
2.999998119364767746e+01,1.200000617612289204e+02,1.031274963757225116e+01
2.999998102873220773e+01,1.200000622817956497e+02,1.039726577910460037e+01
2.999998086381671314e+01,1.200000628023623790e+02,1.048178191792734815e+01
2.999998069890117947e+01,1.200000633229291509e+02,1.056629805431145464e+01
2.999998053398562803e+01,1.200000638434959370e+02,1.065081418850078343e+01
2.999998036907004462e+01,1.200000643640627089e+02,1.073533032071481230e+01
2.999998020415444344e+01,1.200000648846295235e+02,1.081984645115107035e+01
2.999998003923882806e+01,1.200000654051963522e+02,1.090436257998733538e+01
2.999997987432318780e+01,1.200000659257631810e+02,1.098887870738360739e+01
2.999997970940753689e+01,1.200000664463300097e+02,1.107339483348388498e+01
2.999997954449186821e+01,1.200000669668968385e+02,1.115791095841776581e+01
2.999997937957618888e+01,1.200000674874636957e+02,1.124242708230189258e+01
2.999997921466050599e+01,1.200000680080305528e+02,1.132694320524123910e+01
2.999997904974480889e+01,1.200000685285974100e+02,1.141145932733028268e+01
2.999997888482910469e+01,1.200000690491642388e+02,1.149597544865405396e+01
2.999997871991338627e+01,1.200000695697310960e+02,1.158049156928908019e+01
2.999997855499767141e+01,1.200000700902979389e+02,1.166500768930423604e+01
2.999997839008194589e+01,1.200000706108647961e+02,1.174952380876150926e+01
2.999997822516621682e+01,1.200000711314316533e+02,1.183403992771668811e+01
2.999997806025048774e+01,1.200000716519985104e+02,1.191855604621998133e+01
2.999997789533475157e+01,1.200000721725653392e+02,1.200307216431657764e+01
2.999997773041900828e+01,1.200000726931321964e+02,1.208758828204714675e+01
2.999997756550327210e+01,1.200000732136990251e+02,1.217210439944829048e+01
2.999997740058753237e+01,1.200000737342658539e+02,1.225662051655295315e+01
2.999997723567178198e+01,1.200000742548326826e+02,1.234113663339078215e+01
2.999997707075603870e+01,1.200000747753995114e+02,1.242565274998846014e+01
2.999997690584029897e+01,1.200000752959663259e+02,1.251016886637000169e+01
2.999997674092454858e+01,1.200000758165331547e+02,1.259468498255702151e+01
2.999997657600880174e+01,1.200000763370999550e+02,1.267920109856897248e+01
2.999997641109305846e+01,1.200000768576667554e+02,1.276371721442336060e+01
2.999997624617730807e+01,1.200000773782335415e+02,1.284823333013594215e+01
2.999997608126156834e+01,1.200000778988003418e+02,1.293274944572089780e+01
2.999997591634582506e+01,1.200000784193671279e+02,1.301726556119099065e+01
2.999997575143008177e+01,1.200000789399338998e+02,1.310178167655770665e+01
2.999997558651433494e+01,1.200000794605006575e+02,1.318629779183138240e+01
2.999997542159859876e+01,1.200000799810674295e+02,1.327081390702132246e+01
2.999997525668285547e+01,1.200000805016341872e+02,1.335533002213590237e+01
2.999997509176711219e+01,1.200000810222009449e+02,1.343984613718265564e+01
2.999997492685137601e+01,1.200000815427676741e+02,1.352436225216836618e+01
2.999997476193564339e+01,1.200000820633343892e+02,1.360887836709913756e+01
2.999997459701990721e+01,1.200000825839011185e+02,1.369339448198046405e+01
2.999997443210417458e+01,1.200000831044678478e+02,1.377791059681729102e+01
2.999997426718844196e+01,1.200000836250345486e+02,1.386242671161406648e+01
2.999997410227270933e+01,1.200000841456012779e+02,1.394694282637479787e+01
2.999997393735698736e+01,1.200000846661679645e+02,1.403145894110308767e+01
2.999997377244125829e+01,1.200000851867346654e+02,1.411597505580218126e+01
2.999997360752553632e+01,1.200000857073013378e+02,1.420049117047499720e+01
2.999997344260981080e+01,1.200000862278680103e+02,1.428500728512416451e+01
2.999997327769409594e+01,1.200000867484346969e+02,1.436952339975204751e+01
2.999997311277837042e+01,1.200000872690013409e+02,1.445403951436077428e+01
2.999997294786265556e+01,1.200000877895679992e+02,1.453855562895226150e+01
2.999997278294694425e+01,1.200000883101346432e+02,1.462307174352823225e+01
2.999997261803122584e+01,1.200000888307012730e+02,1.470758785809023728e+01
2.999997245311551808e+01,1.200000893512679312e+02,1.479210397263967458e+01
2.999997228819981387e+01,1.200000898718345468e+02,1.487662008717780004e+01
2.999997212328410257e+01,1.200000903924011482e+02,1.496113620170574521e+01
2.999997195836839836e+01,1.200000909129677495e+02,1.504565231622452792e+01
2.999997179345270126e+01,1.200000914335343509e+02,1.513016843073506479e+01
2.999997162853699706e+01,1.200000919541009523e+02,1.521468454523818004e+01
2.999997146362129996e+01,1.200000924746675253e+02,1.529920065973461618e+01
2.999997129870559931e+01,1.200000929952341124e+02,1.538371677422504114e+01
2.999997113378990932e+01,1.200000935158006854e+02,1.546823288871005531e+01
2.999997096887421932e+01,1.200000940363672584e+02,1.555274900319020048e+01
2.999997080395852578e+01,1.200000945569338029e+02,1.563726511766596339e+01
2.999997063904284289e+01,1.200000950775003616e+02,1.572178123213778278e+01
2.999997047412715645e+01,1.200000955980668778e+02,1.580629734660605301e+01
2.999997030921147001e+01,1.200000961186334365e+02,1.589081346107112758e+01
2.999997014429579423e+01,1.200000966391999242e+02,1.597532957553332800e+01
2.999996997938011489e+01,1.200000971597664545e+02,1.605984568999294027e+01
2.999996981446443556e+01,1.200000976803329564e+02,1.614436180445022373e+01
2.999996964954875622e+01,1.200000982008994583e+02,1.622887791890541109e+01
2.999996948463308399e+01,1.200000987214659460e+02,1.631339403335871197e+01
2.999996931971741887e+01,1.200000992420324479e+02,1.639791014781031464e+01
2.999996915480174664e+01,1.200000997625989214e+02,1.648242626226038965e+01
2.999996898988608152e+01,1.200001002831653949e+02,1.656694237670908976e+01
2.999996882497041994e+01,1.200001008037318400e+02,1.665145849115655352e+01
2.999996866005475482e+01,1.200001013242982992e+02,1.673597460560290173e+01
2.999996849513910036e+01,1.200001018448647443e+02,1.682049072004824808e+01
2.999996833022344234e+01,1.200001023654311894e+02,1.690500683449269204e+01
2.999996816530778787e+01,1.200001028859976202e+02,1.698952294893632242e+01
2.999996800039213696e+01,1.200001034065640368e+02,1.707403906337922450e+01
2.999996783547648249e+01,1.200001039271304535e+02,1.715855517782146578e+01
2.999996767056083513e+01,1.200001044476968559e+02,1.724307129226311730e+01
2.999996750564518777e+01,1.200001049682632583e+02,1.732758740670423592e+01
2.999996734072954041e+01,1.200001054888296466e+02,1.741210352114487492e+01
2.999996717581390016e+01,1.200001060093960490e+02,1.749661963558508049e+01
2.999996701089825990e+01,1.200001065299624230e+02,1.758113575002489881e+01
2.999996684598262675e+01,1.200001070505287970e+02,1.766565186446436897e+01
2.999996668106698650e+01,1.200001075710951426e+02,1.775016797890352294e+01
2.999996651615135690e+01,1.200001080916614882e+02,1.783468409334239269e+01
2.999996635123572375e+01,1.200001086122278338e+02,1.791920020778101019e+01
2.999996618632009771e+01,1.200001091327941793e+02,1.800371632221939677e+01
2.999996602140446811e+01,1.200001096533604965e+02,1.808823243665757730e+01
2.999996585648884562e+01,1.200001101739268137e+02,1.817274855109557308e+01
2.999996569157321957e+01,1.200001106944931450e+02,1.825726466553340188e+01
2.999996552665760419e+01,1.200001112150594622e+02,1.834178077997107792e+01
2.999996536174198170e+01,1.200001117356257510e+02,1.842629689440861895e+01
2.999996519682636631e+01,1.200001122561920539e+02,1.851081300884603920e+01
2.999996503191075092e+01,1.200001127767583284e+02,1.859532912328334930e+01
2.999996486699514264e+01,1.200001132973245888e+02,1.867984523772055994e+01
2.999996470207953436e+01,1.200001138178908633e+02,1.876436135215768175e+01
2.999996453716392608e+01,1.200001143384571378e+02,1.884887746659472541e+01
2.999996437224832491e+01,1.200001148590233839e+02,1.893339358103169801e+01
2.999996420733272018e+01,1.200001153795896158e+02,1.901790969546860310e+01
2.999996404241711900e+01,1.200001159001558619e+02,1.910242580990545136e+01
2.999996387750152493e+01,1.200001164207220796e+02,1.918694192434224632e+01
2.999996371258592731e+01,1.200001169412883115e+02,1.927145803877899510e+01
2.999996354767032969e+01,1.200001174618545292e+02,1.935597415321570125e+01
2.999996338275474272e+01,1.200001179824207185e+02,1.944049026765236832e+01
2.999996321783915221e+01,1.200001185029869362e+02,1.952500638208899986e+01
2.999996305292356169e+01,1.200001190235531112e+02,1.960952249652560297e+01
2.999996288800797828e+01,1.200001195441193005e+02,1.969403861096217767e+01
2.999996272309239487e+01,1.200001200646854613e+02,1.977855472539872750e+01
2.999996255817681146e+01,1.200001205852516364e+02,1.986307083983525246e+01
2.999996239326123515e+01,1.200001211058177972e+02,1.994758695427175965e+01
2.999996222834565884e+01,1.200001216263839439e+02,2.003210306870824908e+01
2.999996206343008964e+01,1.200001221469500905e+02,2.011661918314472075e+01
2.999996189851450978e+01,1.200001226675162371e+02,2.020113529758117821e+01
2.999996173359894058e+01,1.200001231880823553e+02,2.028565141201762145e+01
2.999996156868337849e+01,1.200001237086484736e+02,2.037016752645405404e+01
2.999996140376781284e+01,1.200001242292145776e+02,2.045468364089047597e+01
2.999996123885224719e+01,1.200001247497806958e+02,2.053919975532688724e+01
2.999996107393668510e+01,1.200001252703467998e+02,2.062371586976328786e+01
2.999996090902112655e+01,1.200001257909128896e+02,2.070823198419968136e+01
2.999996074410556801e+01,1.200001263114789509e+02,2.079274809863606777e+01
2.999996057919001657e+01,1.200001268320450407e+02,2.087726421307244706e+01
2.999996041427446514e+01,1.200001273526111163e+02,2.096178032750882281e+01
2.999996024935891370e+01,1.200001278731771492e+02,2.104629644194519145e+01
2.999996008444336937e+01,1.200001283937432248e+02,2.113081255638155653e+01
2.999995991952782504e+01,1.200001289143092578e+02,2.121532867081791807e+01
2.999995975461228070e+01,1.200001294348753049e+02,2.129984478525427605e+01
2.999995958969673282e+01,1.200001299554413094e+02,2.138436089969063048e+01
2.999995942478119559e+01,1.200001304760073282e+02,2.146887701412698135e+01
2.999995925986566192e+01,1.200001309965733469e+02,2.155339312856332867e+01
2.999995909495012469e+01,1.200001315171393657e+02,2.163790924299967244e+01
2.999995893003459102e+01,1.200001320377053560e+02,2.172242535743601621e+01
2.999995876511906445e+01,1.200001325582713463e+02,2.180694147187235643e+01
2.999995860020353433e+01,1.200001330788373082e+02,2.189145758630869665e+01
2.999995843528800776e+01,1.200001335994032985e+02,2.197597370074503331e+01
2.999995827037248830e+01,1.200001341199692604e+02,2.206048981518136998e+01
2.999995810545696173e+01,1.200001346405352223e+02,2.214500592961770664e+01
2.999995794054144227e+01,1.200001351611011700e+02,2.222952204405403975e+01
2.999995777562592991e+01,1.200001356816671034e+02,2.231403815849037287e+01
2.999995761071041045e+01,1.200001362022330511e+02,2.239855427292670598e+01
