pos_lat (deg),pos_lon (deg),pos_alt (m)
3.099516270599999856e+01,1.199999999999999858e+02,0.000000000000000000e+00
3.099516288639245332e+01,1.199999999999999858e+02,0.000000000000000000e+00
3.099516306678835420e+01,1.200000000000010658e+02,4.835334769522860014e-07
3.099516324718400995e+01,1.200000000000041069e+02,7.170288985051438560e-07
3.099516342757407728e+01,1.200000000000082849e+02,5.842336924136782753e-07
3.099516360796164349e+01,1.200000000000079581e+02,9.453939545983304886e-07
3.099516378834799113e+01,1.200000000000040927e+02,1.250335463793888530e-06
3.099516396872709478e+01,1.199999999999956088e+02,1.269904429381993841e-06
3.099516414911341755e+01,1.199999999999854339e+02,1.840077764349199694e-06
3.099516432950000677e+01,1.199999999999766516e+02,3.139134572875664554e-06
3.099516450988268446e+01,1.199999999999611333e+02,4.490140167174515172e-06
3.099516469026540122e+01,1.199999999999401155e+02,5.845985461030301020e-06
3.099516487064660808e+01,1.199999999999214708e+02,6.603732399567743613e-06
3.099516505103157016e+01,1.199999999999075015e+02,7.231645363479813514e-06
3.099516523140612634e+01,1.199999999998993019e+02,7.709778475225792112e-06
3.099516541178086371e+01,1.199999999998921112e+02,7.609591538708091978e-06
3.099516559215069123e+01,1.199999999998903775e+02,6.401109276435111280e-06
3.099516577252362026e+01,1.199999999998820499e+02,4.725651610353641269e-06
3.099516595290143783e+01,1.199999999998804725e+02,3.451079226278654048e-06
3.099516613328054149e+01,1.199999999998771756e+02,1.792278031841079163e-06
3.099516631366458697e+01,1.199999999998730971e+02,4.669166164825765421e-07
3.099516649405328295e+01,1.199999999998632489e+02,-9.846751294423588929e-07
3.099516667444946449e+01,1.199999999998540972e+02,-2.212466096603433297e-06
3.099516685485074774e+01,1.199999999998454427e+02,-3.751986947652654991e-06
3.099516703525960892e+01,1.199999999998367883e+02,-4.615949757870029153e-06
3.099516721567199795e+01,1.199999999998329798e+02,-5.826470527484384638e-06
3.099516739608241878e+01,1.199999999998210427e+02,-8.085515113400672845e-06
3.099516757650271614e+01,1.199999999998029949e+02,-9.886763106179112463e-06
3.099516775692407577e+01,1.199999999997865956e+02,-1.238933723266997561e-05
3.099516793734220244e+01,1.199999999997739479e+02,-1.484473720536882833e-05
3.099516811776192071e+01,1.199999999997637161e+02,-1.642242905289315519e-05
3.099516829818496788e+01,1.199999999997482689e+02,-1.883071376344731389e-05
3.099516847860872559e+01,1.199999999997270237e+02,-2.212427238610067460e-05
3.099516865903563101e+01,1.199999999997093596e+02,-2.500532676988491578e-05
3.099516883946233392e+01,1.199999999996923208e+02,-2.795973784834932508e-05
3.099516901988870643e+01,1.199999999996690860e+02,-3.007194092442844687e-05
3.099516920031553724e+01,1.199999999996432365e+02,-3.202265066778189434e-05
3.099516938074510364e+01,1.199999999996142748e+02,-3.383941078267261308e-05
3.099516956117467714e+01,1.199999999995873594e+02,-3.696060871729034425e-05
3.099516974159823590e+01,1.199999999995671089e+02,-3.995093276861470967e-05
3.099516992201870025e+01,1.199999999995487627e+02,-4.353934794323173973e-05
3.099517010243883064e+01,1.199999999995310702e+02,-4.625251916639636654e-05
3.099517028285690401e+01,1.199999999995169304e+02,-4.940962969604939357e-05
3.099517046327626701e+01,1.199999999995141309e+02,-5.149114261035360582e-05
3.099517064369379682e+01,1.199999999995120703e+02,-5.367090673203277933e-05
3.099517082411043489e+01,1.199999999995170867e+02,-5.540189816292403297e-05
3.099517100452442975e+01,1.199999999995144151e+02,-5.649986428584256317e-05
3.099517118493637469e+01,1.199999999995073665e+02,-5.724149253746750653e-05
3.099517136535140693e+01,1.199999999995070823e+02,-5.761677864560479239e-05
3.099517154576521349e+01,1.199999999995147135e+02,-5.730052797329624408e-05
3.099517172618951477e+01,1.199999999995268212e+02,-5.673976243923484826e-05
3.099517190661989829e+01,1.199999999995356319e+02,-5.614232956762742579e-05
3.099517208705001181e+01,1.199999999995421121e+02,-5.590981128906484141e-05
3.099517226748298881e+01,1.199999999995470006e+02,-5.445538563023573792e-05
3.099517244791623583e+01,1.199999999995502833e+02,-5.313699888832398486e-05
3.099517262834417508e+01,1.199999999995507665e+02,-5.184022967495993683e-05
3.099517280877422110e+01,1.199999999995500559e+02,-5.052568790574577548e-05
3.099517298920251562e+01,1.199999999995484501e+02,-5.001001411662317795e-05
3.099517316962736757e+01,1.199999999995394262e+02,-5.051588443036370316e-05
3.099517335004762586e+01,1.199999999995392699e+02,-5.135887938489249263e-05
3.099517353046755730e+01,1.199999999995388862e+02,-5.263516423627026780e-05
3.099517371088077411e+01,1.199999999995391704e+02,-5.365292807888453667e-05
3.099517389129230693e+01,1.199999999995365272e+02,-5.478015702092062635e-05
3.099517407169742711e+01,1.199999999995307007e+02,-5.618504954278798826e-05
3.099517425210085264e+01,1.199999999995293649e+02,-5.764295414518977285e-05
3.099517443250095994e+01,1.199999999995364419e+02,-5.765764864849038242e-05
3.099517461289519105e+01,1.199999999995364988e+02,-5.785269780676308431e-05
3.099517479328256897e+01,1.199999999995290381e+02,-5.785174546818068036e-05
3.099517497366948504e+01,1.199999999995332445e+02,-5.823562428812915416e-05
3.099517515406192558e+01,1.199999999995369819e+02,-5.886106127599554646e-05
3.099517533444992168e+01,1.199999999995427800e+02,-5.993220707586416817e-05
3.099517551484177247e+01,1.199999999995475406e+02,-6.095711018438555419e-05
3.099517569523516869e+01,1.199999999995478248e+02,-6.176054416044915473e-05
3.099517587562979770e+01,1.199999999995473843e+02,-6.306898142142354003e-05
3.099517605602261128e+01,1.199999999995442579e+02,-6.403289657445270042e-05
3.099517623641802899e+01,1.199999999995418847e+02,-6.473635380367187770e-05
3.099517641682047042e+01,1.199999999995336992e+02,-6.504501656468440957e-05
3.099517659722746288e+01,1.199999999995313829e+02,-6.554548684142995937e-05
3.099517677764023915e+01,1.199999999995342250e+02,-6.629731434255721153e-05
3.099517695806051876e+01,1.199999999995406199e+02,-6.681615596954186618e-05
3.099517713847855305e+01,1.199999999995522160e+02,-6.732322675903424432e-05
3.099517731889032035e+01,1.199999999995626041e+02,-6.812472906387048667e-05
3.099517749930620170e+01,1.199999999995758060e+02,-6.915450019715128579e-05
3.099517767972892912e+01,1.199999999995841335e+02,-7.069707867817049611e-05
3.099517786015170628e+01,1.199999999995835651e+02,-7.229552173703055720e-05
3.099517804057508386e+01,1.199999999995897184e+02,-7.353230753084944598e-05
3.099517822099793207e+01,1.199999999995920916e+02,-7.430171175844521082e-05
3.099517840142177860e+01,1.199999999996001776e+02,-7.626978891091532509e-05
3.099517858184738728e+01,1.199999999996113331e+02,-7.796369002011169919e-05
3.099517876226758872e+01,1.199999999996204139e+02,-8.013573770508329033e-05
3.099517894268706186e+01,1.199999999996337721e+02,-8.185595988485195001e-05
3.099517912311225487e+01,1.199999999996482956e+02,-8.400665722388984816e-05
3.099517930353213302e+01,1.199999999996603037e+02,-8.629993285222651732e-05
3.099517948395131128e+01,1.199999999996741451e+02,-8.883957178447211324e-05
3.099517966436751237e+01,1.199999999996904023e+02,-9.103728628840685637e-05
3.099517984478167065e+01,1.199999999997129834e+02,-9.371186471476062230e-05
3.099518002519937454e+01,1.199999999997393587e+02,-9.571916725477988693e-05
3.099518020561438547e+01,1.199999999997517790e+02,-9.860925742356741114e-05
3.099518038602051817e+01,1.199999999997657483e+02,-1.011526211791043936e-04
3.099518056642709851e+01,1.199999999997785523e+02,-1.038676539987959824e-04
