pos_lat (deg),pos_lon (deg),pos_alt (m)
3.090668799999999905e+01,1.199999999999999858e+02,0.000000000000000000e+00
3.090668818039493004e+01,1.199999999999999858e+02,0.000000000000000000e+00
3.090668836078362602e+01,1.199999999999932498e+02,9.301206743095375793e-08
3.090668854118085207e+01,1.199999999999828475e+02,3.972558059166342545e-07
3.090668872158214242e+01,1.199999999999766374e+02,2.061209990765159890e-06
3.090668890197779106e+01,1.199999999999697593e+02,4.318475084899992904e-06
3.090668908237319457e+01,1.199999999999681108e+02,7.237341986181700199e-06
3.090668926276628881e+01,1.199999999999715641e+02,1.090256485161745324e-05
3.090668944315482847e+01,1.199999999999783853e+02,1.564384826320920898e-05
3.090668962354478566e+01,1.199999999999858176e+02,2.027123029705802439e-05
3.090668980393270004e+01,1.199999999999963052e+02,2.511383652023182564e-05
3.090668998431723935e+01,1.200000000000017195e+02,2.993095942139007169e-05
3.090669016470378594e+01,1.200000000000110134e+02,3.447430065674754072e-05
3.090669034509232205e+01,1.200000000000275264e+02,3.917087544818712773e-05
3.090669052547835705e+01,1.200000000000468390e+02,4.301594754549178403e-05
3.090669070586553957e+01,1.200000000000584350e+02,4.687003072658057167e-05
3.090669088625092087e+01,1.200000000000742375e+02,5.062327049013072068e-05
3.090669106663635546e+01,1.200000000000981828e+02,5.476749498551832516e-05
3.090669124702082016e+01,1.200000000001132889e+02,5.924939931299435381e-05
3.090669142740749820e+01,1.200000000001368363e+02,6.436625922505664920e-05
3.090669160779468783e+01,1.200000000001681570e+02,6.966359204682088429e-05
3.090669178818527030e+01,1.200000000001973604e+02,7.377151717719280415e-05
3.090669196856780943e+01,1.200000000002240057e+02,7.840960668327305073e-05
3.090669214893933514e+01,1.200000000002517169e+02,8.382770242480336320e-05
3.090669232931728061e+01,1.200000000002649756e+02,8.896197694625150750e-05
3.090669250969370552e+01,1.200000000002902567e+02,9.348424680593886025e-05
3.090669269006058428e+01,1.200000000003177689e+02,9.736429785608330183e-05
3.090669287043026614e+01,1.200000000003443290e+02,1.013193218875600872e-04
3.090669305080305307e+01,1.200000000003722391e+02,1.053799081001419668e-04
3.090669323117643685e+01,1.200000000004070699e+02,1.094487259921184455e-04
3.090669341154764638e+01,1.200000000004448850e+02,1.136414619518852511e-04
3.090669359192127175e+01,1.200000000004798437e+02,1.187380940707237996e-04
3.090669377230028658e+01,1.200000000005090897e+02,1.242484247886687385e-04
3.090669395267663333e+01,1.200000000005350103e+02,1.291710731934919579e-04
3.090669413305731439e+01,1.200000000005580318e+02,1.350638284345898261e-04
3.090669431344312201e+01,1.200000000005791065e+02,1.410751039172743627e-04
3.090669449382719947e+01,1.200000000005985186e+02,1.472580424049261063e-04
3.090669467420879712e+01,1.200000000006220375e+02,1.539233270547142401e-04
3.090669485458740340e+01,1.200000000006406111e+02,1.609938945993651897e-04
3.090669503496762616e+01,1.200000000006575220e+02,1.680319108357728711e-04
3.090669521535548725e+01,1.200000000006739072e+02,1.754723824731735783e-04
3.090669539574371072e+01,1.200000000006952376e+02,1.826429002848754617e-04
3.090669557612868701e+01,1.200000000007217409e+02,1.893664660745997882e-04
3.090669575651589440e+01,1.200000000007481020e+02,1.962367534952968334e-04
3.090669593690072148e+01,1.200000000007800196e+02,2.035215201590772607e-04
3.090669611729164856e+01,1.200000000008154046e+02,2.117984603233534035e-04
3.090669629768639481e+01,1.200000000008522534e+02,2.206280314856732291e-04
3.090669647807946774e+01,1.200000000008811867e+02,2.284537288887847676e-04
3.090669665847211789e+01,1.200000000009038246e+02,2.360487883859776906e-04
3.090669683886417118e+01,1.200000000009119248e+02,2.439419275839839214e-04
3.090669701925569868e+01,1.200000000009126637e+02,2.521542353708623252e-04
3.090669719964444440e+01,1.200000000009233503e+02,2.600180605690693351e-04
3.090669738002964806e+01,1.200000000009367085e+02,2.683564495974045841e-04
3.090669756042658278e+01,1.200000000009546710e+02,2.773512826689605122e-04
3.090669774082462951e+01,1.200000000009773373e+02,2.858947004001747313e-04
3.090669792122614723e+01,1.200000000009993784e+02,2.944906654749671862e-04
3.090669810162443554e+01,1.200000000010223005e+02,3.037582347707476569e-04
3.090669828202437941e+01,1.200000000010401919e+02,3.127651393212473605e-04
3.090669846242216323e+01,1.200000000010562360e+02,3.213910832742193613e-04
3.090669864280840429e+01,1.200000000010676331e+02,3.295774122254216637e-04
3.090669882319516404e+01,1.200000000010839472e+02,3.379587789095160610e-04
3.090669900357941557e+01,1.200000000010901005e+02,3.464035512664658629e-04
3.090669918395991544e+01,1.200000000010959127e+02,3.543867741977895815e-04
3.090669936433978293e+01,1.200000000011017818e+02,3.627883901752838565e-04
3.090669954471711733e+01,1.200000000011017818e+02,3.708221684818564312e-04
3.090669972509534347e+01,1.200000000011095409e+02,3.790240595824096934e-04
3.090669990547026202e+01,1.200000000011168737e+02,3.868481363695350965e-04
3.090670008584602968e+01,1.200000000011272761e+02,3.952020247637938141e-04
3.090670026621980782e+01,1.200000000011359589e+02,4.029385457238631634e-04
3.090670044658925519e+01,1.200000000011437749e+02,4.107513792940199640e-04
3.090670062695713227e+01,1.200000000011434622e+02,4.184867310591798041e-04
3.090670080731814195e+01,1.200000000011336425e+02,4.264762064608874632e-04
3.090670098768535823e+01,1.200000000011256560e+02,4.345651548680108146e-04
3.090670116805688394e+01,1.200000000011191332e+02,4.428585656506974183e-04
3.090670134843172434e+01,1.200000000011187637e+02,4.508009433666431646e-04
3.090670152881290988e+01,1.200000000011239507e+02,4.584457930774349745e-04
3.090670170919414161e+01,1.200000000011213217e+02,4.666080672566485219e-04
3.090670188957655995e+01,1.200000000011089156e+02,4.747620934831597362e-04
3.090670206995812919e+01,1.200000000011052208e+02,4.820570223640388802e-04
3.090670225034017804e+01,1.200000000010947332e+02,4.887738795334871291e-04
3.090670243072059975e+01,1.200000000010862209e+02,4.957081546183517368e-04
3.090670261110049566e+01,1.200000000010935963e+02,5.032486163618678796e-04
3.090670279148505628e+01,1.200000000011001049e+02,5.112132678287571643e-04
3.090670297187074311e+01,1.200000000011100099e+02,5.197092083776718146e-04
3.090670315225768405e+01,1.200000000011185790e+02,5.282375586967452035e-04
3.090670333264754532e+01,1.200000000011259260e+02,5.368394044976134653e-04
3.090670351303828056e+01,1.200000000011317667e+02,5.455344759468827879e-04
3.090670369343211021e+01,1.200000000011406200e+02,5.537621562864445757e-04
3.090670387383493889e+01,1.200000000011534098e+02,5.612579891952454740e-04
3.090670405423727374e+01,1.200000000011612542e+02,5.688919717721672639e-04
3.090670423462449889e+01,1.200000000011743282e+02,5.769163931876270055e-04
3.090670441501008980e+01,1.200000000011806662e+02,5.843205698585575208e-04
3.090670459540117321e+01,1.200000000011857821e+02,5.922509437741033589e-04
3.090670477579256570e+01,1.200000000011983445e+02,5.998332645077181658e-04
3.090670495617532509e+01,1.200000000012136923e+02,6.076941115703228449e-04
3.090670513655643248e+01,1.200000000012257289e+02,6.146810824327652092e-04
3.090670531693393386e+01,1.200000000012444303e+02,6.218176386931185615e-04
3.090670549731864725e+01,1.200000000012660308e+02,6.289476380551212512e-04
3.090670567771013211e+01,1.200000000012808954e+02,6.364516670592013960e-04
3.090670585810220672e+01,1.200000000012894930e+02,6.432544307577465342e-04
3.090670603849367737e+01,1.200000000012958736e+02,6.498373409613392463e-04
3.090670621888029856e+01,1.200000000012983463e+02,6.572671414654743249e-04
3.090670639927018115e+01,1.200000000013027233e+02,6.638146386549610397e-04
3.090670657966190760e+01,1.200000000012957457e+02,6.712517254327257047e-04
3.090670676005278850e+01,1.200000000012920367e+02,6.785129696602766993e-04
3.090670694043345179e+01,1.200000000012906582e+02,6.855310291189906048e-04
3.090670712081833571e+01,1.200000000012931594e+02,6.923412737142544586e-04
3.090670730120683629e+01,1.200000000013016574e+02,7.003439374003320259e-04
3.090670748159776338e+01,1.200000000013079813e+02,7.086194496839525771e-04
3.090670766198832098e+01,1.200000000013095587e+02,7.160014570493961235e-04
3.090670784237864765e+01,1.200000000013154988e+02,7.233914073887208343e-04
3.090670802276359552e+01,1.200000000013156694e+02,7.305947044403084860e-04
3.090670820315480327e+01,1.200000000013132535e+02,7.386955957889229044e-04
3.090670838354788330e+01,1.200000000013049828e+02,7.470315094435997158e-04
3.090670856393516530e+01,1.200000000013002222e+02,7.556529540350821576e-04
3.090670874432413484e+01,1.200000000012982611e+02,7.645226078503460218e-04
3.090670892470612685e+01,1.200000000012884982e+02,7.735444256066368804e-04
3.090670910508096014e+01,1.200000000012766179e+02,7.816220133324057549e-04
3.090670928545497986e+01,1.200000000012600196e+02,7.894148558256455957e-04
3.090670946582796574e+01,1.200000000012383907e+02,7.971294724236002846e-04
3.090670964620739625e+01,1.200000000012224177e+02,8.055910184861706349e-04
3.090670982658374655e+01,1.200000000012040005e+02,8.152336013619679864e-04
3.090671000696045922e+01,1.200000000011765451e+02,8.240744869101430080e-04
3.090671018733374709e+01,1.200000000011539782e+02,8.328610340703686580e-04
3.090671036769808566e+01,1.200000000011286829e+02,8.410747674142141301e-04
3.090671054807173590e+01,1.200000000010984564e+02,8.497555303963662569e-04
3.090671072844172329e+01,1.200000000010627730e+02,8.583322171462609953e-04
3.090671090880822547e+01,1.200000000010306991e+02,8.680072217673657142e-04
3.090671108917585386e+01,1.200000000009913066e+02,8.778068198349638779e-04
3.090671126953426295e+01,1.200000000009468550e+02,8.874012975038709410e-04
3.090671144989211427e+01,1.200000000009003998e+02,8.968244139447073462e-04
3.090671163025415780e+01,1.200000000008459722e+02,9.060133456686562427e-04
3.090671181061073369e+01,1.200000000007945715e+02,9.151807051673904389e-04
3.090671199095871913e+01,1.200000000007384386e+02,9.238430229698814606e-04
3.090671217131032833e+01,1.200000000006842953e+02,9.329553164796888787e-04
3.090671235166097830e+01,1.200000000006285177e+02,9.411763495233803475e-04
3.090671253201325896e+01,1.200000000005679937e+02,9.489949733248252391e-04
3.090671271236708861e+01,1.200000000005095870e+02,9.569041045454318396e-04
3.090671289271838162e+01,1.200000000004463914e+02,9.653218191794964761e-04
3.090671307306623206e+01,1.200000000003732339e+02,9.735031927746727641e-04
3.090671325340914422e+01,1.200000000002994511e+02,9.820292708277137024e-04
3.090671343374449620e+01,1.200000000002177387e+02,9.902343721920206857e-04
3.090671361407979134e+01,1.200000000001347473e+02,9.985645886702466251e-04
3.090671379442098754e+01,1.200000000000459437e+02,1.006973904807515570e-03
3.090671397475225746e+01,1.199999999999610907e+02,1.015644608783760608e-03
3.090671415508174036e+01,1.199999999998833005e+02,1.024967330550186073e-03
3.090671433541663404e+01,1.199999999998006643e+02,1.034434955921897069e-03
3.090671451575164852e+01,1.199999999997126992e+02,1.044548928523297057e-03
3.090671469608080457e+01,1.199999999996223750e+02,1.054698846659848531e-03
3.090671487640222637e+01,1.199999999995343813e+02,1.064571555090855709e-03
3.090671505672327868e+01,1.199999999994370086e+02,1.074504803131339208e-03
3.090671523704308754e+01,1.199999999993419522e+02,1.084617123573823443e-03
3.090671541736247363e+01,1.199999999992504200e+02,1.094608664485515392e-03
3.090671559768718879e+01,1.199999999991564295e+02,1.104117161865568854e-03
3.090671577801313674e+01,1.199999999990692316e+02,1.113577942363399914e-03
3.090671595833206453e+01,1.199999999989859845e+02,1.123965585271174614e-03
3.090671613864915201e+01,1.199999999989016857e+02,1.134368031880540707e-03
3.090671631896353233e+01,1.199999999988171595e+02,1.144509155970208905e-03
3.090671649927941900e+01,1.199999999987344097e+02,1.154472305024461772e-03
3.090671667959604108e+01,1.199999999986496988e+02,1.164824064333706832e-03
3.090671685990922057e+01,1.199999999985651726e+02,1.174854920767174444e-03
3.090671704022378918e+01,1.199999999984790691e+02,1.184519423281483845e-03
3.090671722053637893e+01,1.199999999983910328e+02,1.194484128533288827e-03
3.090671740084914987e+01,1.199999999982990033e+02,1.205330113083630684e-03
3.090671758115533407e+01,1.199999999982086791e+02,1.215416564857469805e-03
3.090671776145832084e+01,1.199999999981214245e+02,1.225181187285189193e-03
3.090671794176250842e+01,1.199999999980332888e+02,1.235531464507197896e-03
3.090671812206170443e+01,1.199999999979527843e+02,1.246516002231886147e-03
3.090671830236712481e+01,1.199999999978639238e+02,1.257153292506413842e-03
3.090671848267219701e+01,1.199999999977632399e+02,1.268479795265998545e-03
3.090671866297843451e+01,1.199999999976590743e+02,1.280034441880052720e-03
3.090671884328191510e+01,1.199999999975579641e+02,1.291223905187013649e-03
3.090671902358749179e+01,1.199999999974522211e+02,1.302662743023102034e-03
3.090671920389936389e+01,1.199999999973414333e+02,1.314408630526342275e-03
3.090671938420651799e+01,1.199999999972311713e+02,1.326573134302290805e-03
3.090671956451490843e+01,1.199999999971255562e+02,1.339046811911691944e-03
3.090671974482556550e+01,1.199999999970266771e+02,1.351528000400924147e-03
3.090671992513994581e+01,1.199999999969251263e+02,1.364302675693832446e-03
3.090672010545734594e+01,1.199999999968303968e+02,1.377439720018642849e-03
3.090672028577219521e+01,1.199999999967384525e+02,1.390555961308215672e-03
3.090672046609180157e+01,1.199999999966479862e+02,1.402514616424389501e-03
3.090672064640999750e+01,1.199999999965517645e+02,1.414127039916593734e-03
3.090672082672859489e+01,1.199999999964559123e+02,1.424893682291707717e-03
3.090672100704652081e+01,1.199999999963540773e+02,1.435986549299957940e-03
3.090672118735609786e+01,1.199999999962516881e+02,1.447083797715441929e-03
3.090672136767123490e+01,1.199999999961477357e+02,1.457446871354115643e-03
3.090672154798148341e+01,1.199999999960441244e+02,1.468182840365104278e-03
3.090672172829629005e+01,1.199999999959458989e+02,1.479287665714491265e-03
3.090672190861610602e+01,1.199999999958471761e+02,1.489783493348479423e-03
3.090672208892181061e+01,1.199999999957418879e+02,1.500594861594768030e-03
3.090672226922082544e+01,1.199999999956473857e+02,1.511492948729024509e-03
3.090672244951372249e+01,1.199999999955454371e+02,1.521942385433695246e-03
3.090672262980672969e+01,1.199999999954313665e+02,1.532280606886485524e-03
3.090672281010281708e+01,1.199999999953046483e+02,1.543628791504103375e-03
3.090672299039481885e+01,1.199999999951806871e+02,1.555416083405061723e-03
3.090672317068757735e+01,1.199999999950619696e+02,1.567156471837816752e-03
3.090672335098214774e+01,1.199999999949431668e+02,1.578190421529572680e-03
3.090672353127938976e+01,1.199999999948162923e+02,1.589188714735423899e-03
3.090672371157282683e+01,1.199999999946865756e+02,1.600086766792638846e-03
3.090672389186723734e+01,1.199999999945597722e+02,1.611095170247714469e-03
3.090672407215835449e+01,1.199999999944324713e+02,1.622089412608428280e-03
3.090672425244709132e+01,1.199999999943004809e+02,1.633355668532374605e-03
3.090672443273453496e+01,1.199999999941687321e+02,1.643637908333965428e-03
3.090672461301635821e+01,1.199999999940450977e+02,1.653679290889798707e-03
3.090672479329366595e+01,1.199999999939248028e+02,1.664071632995809671e-03
3.090672497357563486e+01,1.199999999938089275e+02,1.673941528279208110e-03
3.090672515385976027e+01,1.199999999936979407e+02,1.683522970730310384e-03
3.090672533413386702e+01,1.199999999935901371e+02,1.693186671567306276e-03
3.090672551440801641e+01,1.199999999934882311e+02,1.703192368773734497e-03
3.090672569467977127e+01,1.199999999933783528e+02,1.713342945882611029e-03
3.090672587495247825e+01,1.199999999932663712e+02,1.723609240086751990e-03
3.090672605522525984e+01,1.199999999931555692e+02,1.733903720823705159e-03
3.090672623550057452e+01,1.199999999930471404e+02,1.744644202610083064e-03
3.090672641577279833e+01,1.199999999929435148e+02,1.754478533122269274e-03
3.090672659604715378e+01,1.199999999928417367e+02,1.764756680302613208e-03
3.090672677632847254e+01,1.199999999927380401e+02,1.774948205080855226e-03
3.090672695660752112e+01,1.199999999926361625e+02,1.784775579470733496e-03
3.090672713688167406e+01,1.199999999925272647e+02,1.794660986743707365e-03
3.090672731716247768e+01,1.199999999924123841e+02,1.804304112114014534e-03
3.090672749743996306e+01,1.199999999922954430e+02,1.814275075580568889e-03
3.090672767771240359e+01,1.199999999921792124e+02,1.824741341621564320e-03
3.090672785797838529e+01,1.199999999920600828e+02,1.835430986905990181e-03
3.090672803824394776e+01,1.199999999919482718e+02,1.845484305368134091e-03
3.090672821850202112e+01,1.199999999918419746e+02,1.856457649555246121e-03
3.090672839876131661e+01,1.199999999917319684e+02,1.868043212688215134e-03
3.090672857901529724e+01,1.199999999916097408e+02,1.879433231827527025e-03
3.090672875927236163e+01,1.199999999914881101e+02,1.892076061434220038e-03
3.090672893951987987e+01,1.199999999913699753e+02,1.904811071899566556e-03
3.090672911976003689e+01,1.199999999912496236e+02,1.918154474195669316e-03
3.090672929999361784e+01,1.199999999911391910e+02,1.931525702640772080e-03
3.090672948022673339e+01,1.199999999910293980e+02,1.943885198678295834e-03
3.090672966045709202e+01,1.199999999909239534e+02,1.955401385918186137e-03
3.090672984069136575e+01,1.199999999908187789e+02,1.966623996310014333e-03
3.090673002092107424e+01,1.199999999907096395e+02,1.978329625861526258e-03
3.090673020115134406e+01,1.199999999906043229e+02,1.990303401509658978e-03
3.090673038138360695e+01,1.199999999905031132e+02,2.001491226444789776e-03
3.090673056162566823e+01,1.199999999903918422e+02,2.013136739768628738e-03
3.090673074187033365e+01,1.199999999902927073e+02,2.023896402813202787e-03
3.090673092211814321e+01,1.199999999901986456e+02,2.034995072279219015e-03
3.090673110236339483e+01,1.199999999901020260e+02,2.045483448929173199e-03
3.090673128260606717e+01,1.199999999900007595e+02,2.055658930530228964e-03
3.090673146284888873e+01,1.199999999899057457e+02,2.065610526283420765e-03
3.090673164308440235e+01,1.199999999898136878e+02,2.075810206212998481e-03
3.090673182331421742e+01,1.199999999897230651e+02,2.085499577680199890e-03
3.090673200353688799e+01,1.199999999896235749e+02,2.094881962645349979e-03
3.090673218375980014e+01,1.199999999895187131e+02,2.104548240306051022e-03
3.090673236398366797e+01,1.199999999894106821e+02,2.114747638507565117e-03
3.090673254420226002e+01,1.199999999893005338e+02,2.124965447027766293e-03
3.090673272442149511e+01,1.199999999891934266e+02,2.135136962946653123e-03
3.090673290463259448e+01,1.199999999890886784e+02,2.145449727713656055e-03
3.090673308484025128e+01,1.199999999889836459e+02,2.155394490046497451e-03
3.090673326504820295e+01,1.199999999888797788e+02,2.165318341793199489e-03
3.090673344524960342e+01,1.199999999887739079e+02,2.175601757787969191e-03
3.090673362544953306e+01,1.199999999886710782e+02,2.185577351246902836e-03
3.090673380564899730e+01,1.199999999885672253e+02,2.195370318601099803e-03
3.090673398584259957e+01,1.199999999884620365e+02,2.205055495132561289e-03
3.090673416602918167e+01,1.199999999883645501e+02,2.214612670903268622e-03
3.090673434622107862e+01,1.199999999882650741e+02,2.225325859904439107e-03
3.090673452641196661e+01,1.199999999881697335e+02,2.236624764288533494e-03
3.090673470660638245e+01,1.199999999880755013e+02,2.247653987064576406e-03
3.090673488680264214e+01,1.199999999879771906e+02,2.258314287034926624e-03
3.090673506699975448e+01,1.199999999878811678e+02,2.269506962333804351e-03
3.090673524720203602e+01,1.199999999877748991e+02,2.280709451182361559e-03
3.090673542740277568e+01,1.199999999876727230e+02,2.291427202165654403e-03
3.090673560759900695e+01,1.199999999875654169e+02,2.302385859661906439e-03
3.090673578779109576e+01,1.199999999874580396e+02,2.312926762984061652e-03
