pos_lat (deg),pos_lon (deg),pos_alt (m)
3.084448000000000079e+01,1.199999999999999858e+02,0.000000000000000000e+00
3.084448018039666550e+01,1.199999999999999858e+02,0.000000000000000000e+00
3.084448036078362421e+01,1.200000000000004263e+02,1.112104484434942603e-07
3.084448054117554605e+01,1.199999999999940314e+02,2.610610329910152814e-07
3.084448072155928600e+01,1.199999999999795079e+02,9.382490405276426432e-07
3.084448090194548087e+01,1.199999999999647571e+02,1.945716031498190141e-06
3.084448108233089414e+01,1.199999999999530189e+02,3.062377194131936567e-06
3.084448126271812640e+01,1.199999999999448050e+02,4.665611847967780190e-06
3.084448144310673356e+01,1.199999999999401723e+02,7.137046823241257579e-06
3.084448162349134037e+01,1.199999999999393054e+02,9.618548700388400554e-06
3.084448180387406069e+01,1.199999999999496083e+02,1.197120483362878379e-05
3.084448198425798182e+01,1.199999999999681393e+02,1.445159954399556820e-05
3.084448216464233283e+01,1.199999999999938893e+02,1.713723913310155372e-05
3.084448234503118158e+01,1.200000000000311644e+02,1.994258667631284296e-05
3.084448252541625024e+01,1.200000000000812150e+02,2.294378525277433793e-05
3.084448270580078599e+01,1.200000000001330847e+02,2.665589516056746829e-05
3.084448288619626055e+01,1.200000000001900418e+02,2.987714764239496852e-05
3.084448306658726580e+01,1.200000000002447678e+02,3.356159346425459253e-05
3.084448324698066912e+01,1.200000000002952447e+02,3.644283185290706070e-05
3.084448342737152871e+01,1.200000000003458638e+02,3.880584791550053359e-05
3.084448360776232789e+01,1.200000000003985718e+02,4.107490986444684689e-05
3.084448378815738323e+01,1.200000000004544063e+02,4.295648158092766283e-05
3.084448396854989127e+01,1.200000000005146603e+02,4.437652735651928282e-05
3.084448414893751078e+01,1.200000000005804281e+02,4.585739349428377915e-05
3.084448432932326156e+01,1.200000000006464091e+02,4.723063807017309371e-05
3.084448450970675282e+01,1.200000000007143939e+02,4.878485258446149171e-05
3.084448469009610605e+01,1.200000000007858887e+02,5.062050694995983465e-05
3.084448487048354082e+01,1.200000000008562466e+02,5.240118521672044853e-05
3.084448505087696191e+01,1.200000000009237766e+02,5.449642946979348329e-05
3.084448523127463204e+01,1.200000000009999042e+02,5.766122817838820094e-05
3.084448541166816327e+01,1.200000000010843593e+02,6.082033933212336463e-05
3.084448559206294505e+01,1.200000000011709460e+02,6.470046875986256482e-05
3.084448577245766643e+01,1.200000000012564669e+02,6.764078056830196664e-05
3.084448595285106265e+01,1.200000000013451142e+02,7.054442570871489635e-05
3.084448613324699195e+01,1.200000000014287451e+02,7.289110705101229152e-05
3.084448631363473226e+01,1.200000000015143371e+02,7.435483118862336804e-05
3.084448649402214926e+01,1.200000000015915873e+02,7.624709623541959353e-05
3.084448667441431624e+01,1.200000000016669333e+02,7.764664172387073318e-05
3.084448685480158758e+01,1.200000000017406734e+02,7.922490548226894351e-05
3.084448703519634094e+01,1.200000000018130919e+02,8.121226410261658791e-05
3.084448721559323303e+01,1.200000000018927580e+02,8.284090572665531020e-05
3.084448739597779365e+01,1.200000000019822153e+02,8.477574894551851846e-05
3.084448757636228677e+01,1.200000000020814781e+02,8.718381898091858621e-05
3.084448775674525578e+01,1.200000000021870648e+02,8.930463976249475495e-05
3.084448793712369152e+01,1.200000000023045743e+02,9.215596275651028477e-05
3.084448811749861008e+01,1.200000000024170390e+02,9.471871489933194959e-05
3.084448829787337942e+01,1.200000000025280684e+02,9.721584016723562496e-05
3.084448847824921458e+01,1.200000000026333424e+02,9.996810819710112901e-05
3.084448865862479394e+01,1.200000000027356748e+02,1.026005098005153200e-04
3.084448883901216476e+01,1.200000000028325644e+02,1.057537466037009434e-04
3.084448901939776277e+01,1.200000000029314720e+02,1.085732665606984194e-04
3.084448919978668613e+01,1.200000000030320706e+02,1.119313016541619048e-04
3.084448938017609976e+01,1.200000000031336214e+02,1.151921428217258587e-04
3.084448956056522917e+01,1.200000000032339074e+02,1.189395407578137113e-04
3.084448974095475293e+01,1.200000000033306975e+02,1.222666896773724743e-04
3.084448992135699541e+01,1.200000000034252139e+02,1.253892025379583304e-04
3.084449010176410155e+01,1.200000000035118859e+02,1.287998015000434973e-04
3.084449028216598876e+01,1.200000000035903298e+02,1.317452490845366132e-04
3.084449046257275739e+01,1.200000000036772718e+02,1.350277462882424869e-04
3.084449064298051724e+01,1.200000000037650807e+02,1.392327948631167441e-04
3.084449082338824510e+01,1.200000000038616150e+02,1.434707598295767602e-04
3.084449100378599695e+01,1.200000000039723318e+02,1.475864376186518802e-04
3.084449118418524804e+01,1.200000000040893440e+02,1.517422173157511266e-04
3.084449136458554719e+01,1.200000000042048072e+02,1.565766666298300724e-04
3.084449154498331680e+01,1.200000000043174282e+02,1.616249505911266434e-04
3.084449172538652206e+01,1.200000000044268944e+02,1.660186925068075220e-04
3.084449190578248334e+01,1.200000000045337885e+02,1.700640996692739633e-04
3.084449208617788329e+01,1.200000000046462247e+02,1.748266452043637550e-04
3.084449226655952003e+01,1.200000000047566573e+02,1.795686466720878259e-04
3.084449244694598846e+01,1.200000000048680278e+02,1.841500671853545058e-04
3.084449262733242492e+01,1.200000000049946323e+02,1.885241367855113568e-04
3.084449280772455637e+01,1.200000000051133071e+02,1.922650643017642744e-04
3.084449298811438211e+01,1.200000000052261555e+02,1.967002561140490332e-04
3.084449316850216150e+01,1.200000000053386202e+02,2.012351088323864829e-04
3.084449334888994798e+01,1.200000000054493938e+02,2.066795772699965116e-04
3.084449352928535504e+01,1.200000000055608780e+02,2.122067967540588822e-04
3.084449370967546145e+01,1.200000000056768528e+02,2.175118848151642100e-04
3.084449389006696407e+01,1.200000000057912217e+02,2.224907065336614029e-04
3.084449407046823666e+01,1.200000000059121845e+02,2.271473956061427328e-04
3.084449425087134600e+01,1.200000000060307741e+02,2.313681284873810246e-04
3.084449443127537194e+01,1.200000000061524617e+02,2.354913592933503331e-04
3.084449461168398798e+01,1.200000000062790946e+02,2.389646374290458372e-04
3.084449479209267153e+01,1.200000000064093655e+02,2.424898259021089392e-04
3.084449497249770999e+01,1.200000000065393380e+02,2.469388356782040313e-04
3.084449515290334887e+01,1.200000000066697652e+02,2.510558986275175327e-04
3.084449533330591819e+01,1.200000000067968386e+02,2.552358319468886905e-04
3.084449551370674669e+01,1.200000000069085360e+02,2.589496104942309233e-04
3.084449569411147252e+01,1.200000000070252213e+02,2.623633444884385297e-04
3.084449587451707586e+01,1.200000000071382686e+02,2.658714073994740629e-04
3.084449605492422464e+01,1.200000000072542008e+02,2.688897125001252718e-04
3.084449623533399176e+01,1.200000000073677313e+02,2.716151603558448753e-04
3.084449641574509826e+01,1.200000000074823845e+02,2.744712307355783032e-04
3.084449659614939776e+01,1.200000000075939823e+02,2.772091725478824441e-04
3.084449677655463162e+01,1.200000000077026385e+02,2.793546162880529210e-04
3.084449695696476468e+01,1.200000000078091205e+02,2.816198274848299402e-04
3.084449713737667409e+01,1.200000000079130018e+02,2.835518546955880632e-04
3.084449731778682491e+01,1.200000000080241023e+02,2.854358138808520432e-04
3.084449749818773867e+01,1.200000000081421803e+02,2.880102549739478276e-04
3.084449767858814440e+01,1.200000000082570608e+02,2.903558777436123384e-04
3.084449785898981133e+01,1.200000000083696108e+02,2.931204434248720829e-04
3.084449803939556745e+01,1.200000000084758653e+02,2.962049337097707948e-04
3.084449821980700435e+01,1.200000000085845073e+02,3.000412418813312851e-04
3.084449840021902745e+01,1.200000000087006669e+02,3.035877248696810084e-04
3.084449858063321770e+01,1.200000000088163858e+02,3.066844075993660902e-04
3.084449876104979182e+01,1.200000000089331991e+02,3.103262979834070295e-04
3.084449894147572024e+01,1.200000000090531671e+02,3.140282280626662415e-04
3.084449912190639864e+01,1.200000000091628607e+02,3.168377937991479301e-04
3.084449930234106674e+01,1.200000000092770307e+02,3.204699063987268373e-04
3.084449948276930797e+01,1.200000000093833705e+02,3.247090390069218356e-04
3.084449966319175473e+01,1.200000000094901083e+02,3.288204805887126646e-04
3.084449984361168973e+01,1.200000000095945296e+02,3.326524502648363878e-04
3.084450002404264879e+01,1.200000000097036832e+02,3.379833630862188933e-04
3.084450020447469498e+01,1.200000000098032729e+02,3.428315625793354774e-04
3.084450038490422230e+01,1.200000000099049231e+02,3.480174378368435482e-04
3.084450056533117390e+01,1.200000000100046691e+02,3.536687916542108432e-04
3.084450074575378054e+01,1.200000000101030935e+02,3.586900675179677755e-04
3.084450092617215944e+01,1.200000000101963451e+02,3.637321445666733227e-04
3.084450110659405198e+01,1.200000000102943289e+02,3.694294872651715197e-04
3.084450128702401983e+01,1.200000000103925970e+02,3.750868510460091706e-04
3.084450146745937360e+01,1.200000000104854081e+02,3.810126671364117237e-04
3.084450164789114623e+01,1.200000000105734301e+02,3.871352225751612496e-04
3.084450182831990261e+01,1.200000000106625890e+02,3.932670088628354202e-04
3.084450200874747949e+01,1.200000000107550022e+02,3.984789503278458379e-04
3.084450218917540809e+01,1.200000000108364731e+02,4.028377992001333377e-04
3.084450236960771718e+01,1.200000000109226761e+02,4.073358249153760137e-04
3.084450255003530472e+01,1.200000000110038769e+02,4.122618304766402855e-04
3.084450273046514823e+01,1.200000000110819371e+02,4.169307549719359143e-04
3.084450291089342855e+01,1.200000000111653407e+02,4.220180437509181686e-04
3.084450309132152057e+01,1.200000000112630687e+02,4.266436218701884697e-04
3.084450327173975737e+01,1.200000000113543877e+02,4.312608420047016268e-04
3.084450345215801903e+01,1.200000000114552563e+02,4.360172452764215925e-04
3.084450363257890260e+01,1.200000000115500285e+02,4.415300443185020841e-04
3.084450381300436916e+01,1.200000000116468044e+02,4.473337257069053300e-04
3.084450399343198868e+01,1.200000000117473604e+02,4.532594138690162252e-04
3.084450417385212972e+01,1.200000000118412515e+02,4.587284635463746685e-04
3.084450435426670722e+01,1.200000000119280088e+02,4.637730411250677674e-04
3.084450453467713871e+01,1.200000000120155903e+02,4.690573096410773101e-04
3.084450471509025959e+01,1.200000000120957964e+02,4.744873343119049812e-04
3.084450489550909680e+01,1.200000000121738282e+02,4.794591862249643279e-04
3.084450507592316981e+01,1.200000000122410313e+02,4.850422362912607368e-04
3.084450525634125029e+01,1.200000000123141888e+02,4.909621526127191807e-04
3.084450543676129186e+01,1.200000000123834951e+02,4.976537385106692040e-04
3.084450561718412231e+01,1.200000000124536967e+02,5.037141920459350854e-04
3.084450579760713040e+01,1.200000000125158550e+02,5.096426903438116673e-04
3.084450597803098759e+01,1.200000000125742048e+02,5.155796616765468375e-04
3.084450615844799870e+01,1.200000000126310482e+02,5.206952391299312982e-04
3.084450633886185145e+01,1.200000000126845237e+02,5.252127697920927528e-04
3.084450651927027920e+01,1.200000000127398891e+02,5.299435092556093125e-04
3.084450669967763758e+01,1.200000000127916451e+02,5.354022933290946643e-04
3.084450688008275065e+01,1.200000000128394646e+02,5.406197914169114929e-04
3.084450706049070945e+01,1.200000000128886199e+02,5.454992668117927823e-04
3.084450724089860074e+01,1.200000000129390259e+02,5.503804935865628427e-04
3.084450742130758982e+01,1.200000000129862912e+02,5.549060779514934346e-04
3.084450760171625916e+01,1.200000000130270053e+02,5.590673545855256608e-04
3.084450778212749711e+01,1.200000000130625750e+02,5.638650116946766766e-04
3.084450796254051141e+01,1.200000000131010580e+02,5.684084509757197229e-04
3.084450814294998366e+01,1.200000000131379778e+02,5.730600663993301721e-04
3.084450832336356285e+01,1.200000000131835378e+02,5.776183483832447903e-04
3.084450850378077646e+01,1.200000000132253177e+02,5.827037505226471308e-04
3.084450868420466563e+01,1.200000000132686324e+02,5.872809973996275445e-04
3.084450886462859032e+01,1.200000000133143203e+02,5.920834758464742871e-04
3.084450904505398228e+01,1.200000000133614435e+02,5.971445113161309021e-04
3.084450922548000662e+01,1.200000000134091778e+02,6.013840576676010010e-04
3.084450940590482659e+01,1.200000000134547804e+02,6.059606455827169563e-04
3.084450958632971762e+01,1.200000000135037652e+02,6.111446200958989879e-04
3.084450976674724032e+01,1.200000000135560754e+02,6.164631151686502612e-04
3.084450994716568673e+01,1.200000000136043639e+02,6.218731258753408585e-04
3.084451012758487209e+01,1.200000000136579530e+02,6.269086305866757806e-04
3.084451030800959614e+01,1.200000000137067531e+02,6.314922966658522482e-04
3.084451048843580168e+01,1.200000000137635539e+02,6.364422146499948028e-04
3.084451066886758142e+01,1.200000000138267495e+02,6.412640110901863914e-04
3.084451084930226727e+01,1.200000000138883536e+02,6.455471030953978916e-04
3.084451102973771697e+01,1.200000000139522740e+02,6.495230328265361348e-04
3.084451121017508868e+01,1.200000000140121870e+02,6.539798801332854334e-04
3.084451139061548020e+01,1.200000000140698262e+02,6.585341353769520603e-04
3.084451157105688424e+01,1.200000000141301797e+02,6.634633900518357606e-04
3.084451175150046964e+01,1.200000000141870515e+02,6.685700810413025249e-04
3.084451193194199448e+01,1.200000000142400438e+02,6.735907076727095559e-04
3.084451211237998436e+01,1.200000000142960772e+02,6.773904725865414513e-04
3.084451229281768292e+01,1.200000000143553933e+02,6.814317362971956601e-04
3.084451247325567280e+01,1.200000000144209764e+02,6.858763652495889060e-04
3.084451265367974315e+01,1.200000000144827368e+02,6.906168680214362122e-04
3.084451283410450628e+01,1.200000000145460177e+02,6.951056619289279091e-04
3.084451301453841410e+01,1.200000000146169583e+02,6.996993823256904450e-04
3.084451319496926658e+01,1.200000000146910963e+02,7.044134982934343800e-04
3.084451337539735505e+01,1.200000000147753667e+02,7.083741978729614017e-04
3.084451355582766041e+01,1.200000000148566102e+02,7.125758335560127476e-04
3.084451373625580572e+01,1.200000000149412642e+02,7.161584687356882268e-04
3.084451391669085041e+01,1.200000000150288457e+02,7.193067516065828129e-04
3.084451409712962544e+01,1.200000000151178483e+02,7.225323285214689398e-04
3.084451427756987130e+01,1.200000000152127910e+02,7.250106972742160127e-04
3.084451445801188640e+01,1.200000000153153508e+02,7.279139570435774797e-04
3.084451463845373453e+01,1.200000000154232396e+02,7.311646592274779121e-04
3.084451481890052094e+01,1.200000000155333311e+02,7.343730312270048931e-04
3.084451499935017438e+01,1.200000000156306328e+02,7.377860822391367653e-04
3.084451517980274815e+01,1.200000000157246234e+02,7.414453166339605604e-04
3.084451536026291762e+01,1.200000000158179887e+02,7.446784656730347750e-04
3.084451554072625967e+01,1.200000000159099613e+02,7.473678650448121238e-04
3.084451572119059648e+01,1.200000000160062967e+02,7.507484789336313358e-04
3.084451590165879153e+01,1.200000000161097233e+02,7.542707943826119097e-04
3.084451608211567120e+01,1.200000000162076930e+02,7.582694352630089040e-04
3.084451626257165557e+01,1.200000000163065437e+02,7.616872814396477781e-04
3.084451644302291839e+01,1.200000000164061333e+02,7.649107331116118290e-04
3.084451662347726852e+01,1.200000000165041172e+02,7.675281432432830807e-04
3.084451680392993111e+01,1.200000000166013621e+02,7.706217596761378392e-04
3.084451698438451572e+01,1.200000000167054139e+02,7.742960929459117648e-04
3.084451716484474559e+01,1.200000000168143828e+02,7.784659196301333241e-04
3.084451734530905753e+01,1.200000000169193157e+02,7.825283069199846526e-04
3.084451752576838501e+01,1.200000000170332584e+02,7.880885843554872238e-04
3.084451770623424949e+01,1.200000000171446857e+02,7.939525721975340417e-04
3.084451788669907302e+01,1.200000000172503718e+02,8.003513771889582710e-04
3.084451806716907640e+01,1.200000000173649255e+02,8.070258715658033127e-04
3.084451824763783989e+01,1.200000000174738375e+02,8.133155005016596498e-04
3.084451842810481992e+01,1.200000000175825079e+02,8.200918017115656298e-04
3.084451860857333472e+01,1.200000000176870572e+02,8.270741652149629294e-04
3.084451878904351219e+01,1.200000000177883805e+02,8.342424703231729986e-04
3.084451896951765093e+01,1.200000000178787474e+02,8.411247241545938801e-04
3.084451914999118216e+01,1.200000000179751680e+02,8.480217597926859247e-04
3.084451933047152394e+01,1.200000000180787794e+02,8.555776429433385949e-04
3.084451951095772060e+01,1.200000000181836839e+02,8.638013951477240904e-04
3.084451969145290207e+01,1.200000000182860873e+02,8.726622694204364417e-04
3.084451987194763589e+01,1.200000000183860891e+02,8.804094567430159873e-04
3.084452005244744299e+01,1.200000000184838171e+02,8.878035541316845998e-04
3.084452023294551637e+01,1.200000000185869169e+02,8.953227183501113193e-04
3.084452041344337658e+01,1.200000000186932567e+02,9.033917289431739675e-04
3.084452059394227064e+01,1.200000000188017282e+02,9.115521774478472583e-04
3.084452077444223406e+01,1.200000000189172624e+02,9.196815884599763777e-04
3.084452095494428647e+01,1.200000000190165821e+02,9.280707467458780471e-04
3.084452113544841723e+01,1.200000000191194687e+02,9.357147441419852614e-04
3.084452131595287128e+01,1.200000000192145677e+02,9.434862636166387170e-04
3.084452149645851549e+01,1.200000000193071799e+02,9.504758488219192157e-04
3.084452167696237979e+01,1.200000000193952872e+02,9.570629898442681348e-04
3.084452185746978614e+01,1.200000000194795859e+02,9.647397092719384301e-04
3.084452203798124970e+01,1.200000000195620515e+02,9.734900806772670912e-04
3.084452221848072995e+01,1.200000000196465777e+02,9.832450552521008504e-04
3.084452239898039494e+01,1.200000000197332497e+02,9.928776521893150058e-04
3.084452257948166931e+01,1.200000000198130721e+02,1.001933364295385731e-03
3.084452275999124637e+01,1.200000000198988346e+02,1.010449799294725528e-03
3.084452294049792798e+01,1.200000000199892440e+02,1.018815609283491670e-03
3.084452312100738425e+01,1.200000000200870289e+02,1.027331529464714944e-03
3.084452330152252486e+01,1.200000000201861070e+02,1.037153876735363422e-03
3.084452348203325300e+01,1.200000000202890362e+02,1.046527378527003583e-03
3.084452366253886879e+01,1.200000000203928749e+02,1.054972027979334502e-03
3.084452384305434336e+01,1.200000000204987884e+02,1.063956247368927658e-03
3.084452402357663914e+01,1.200000000206007513e+02,1.072455717972518397e-03
3.084452420410084628e+01,1.200000000207032116e+02,1.081215081777616967e-03
3.084452438462321666e+01,1.200000000208067235e+02,1.089214287488869540e-03
3.084452456514791763e+01,1.200000000209129070e+02,1.097026127467151928e-03
3.084452474567112645e+01,1.200000000210136335e+02,1.104214238517672256e-03
3.084452492619805852e+01,1.200000000211177564e+02,1.112229653554430361e-03
3.084452510671727765e+01,1.200000000212218936e+02,1.120884671977712783e-03
3.084452528723510056e+01,1.200000000213165521e+02,1.129907381759888765e-03
3.084452546774987169e+01,1.200000000214028546e+02,1.138819601443718729e-03
3.084452564826609589e+01,1.200000000214913314e+02,1.147009087547706113e-03
3.084452582877712601e+01,1.200000000215916600e+02,1.154803114470819144e-03
3.084452600928871391e+01,1.200000000216945040e+02,1.163393544738630485e-03
3.084452618980132854e+01,1.200000000217994938e+02,1.171737527759070339e-03
3.084452637031544597e+01,1.200000000219127969e+02,1.180061208847665117e-03
3.084452655082296957e+01,1.200000000220293970e+02,1.187548944008098980e-03
3.084452673133597145e+01,1.200000000221491518e+02,1.195091028964394156e-03
3.084452691185369488e+01,1.200000000222640750e+02,1.202874979955202749e-03
3.084452709237089252e+01,1.200000000223709407e+02,1.210190581566524199e-03
3.084452727289333751e+01,1.200000000224805774e+02,1.217355571059752697e-03
3.084452745341590330e+01,1.200000000225914931e+02,1.224380567202469844e-03
3.084452763393729668e+01,1.200000000227030199e+02,1.231085252198382222e-03
3.084452781445518710e+01,1.200000000228109087e+02,1.237418676044034667e-03
